-0.1071,-0.09985,-0.077571,-0.050025,-0.010736,0.0586,0.13818,0.1602,0.044588,-0.083884,-0.14291,-0.15728,-0.15738,-0.15728,-0.15122,-0.15393,-0.15142,-0.16361,-0.16574,-0.16418,-0.16311,-0.16807,-0.16008,-0.16059,-0.16175,-0.16196,-0.159,-0.15366,-0.14943,-0.14462,-0.12752,-0.079567,-0.06104,-0.10459,-0.14684,-0.15239,-0.085458,0.92173,-0.21471,-0.25219,-0.11474,-0.09427,-0.077665,-0.068928,-0.048595,-0.015602,0.017682,0.094526,0.17637,0.20429,0.098099,-0.026206,-0.085909,-0.10606,-0.097374,-0.093016,-0.089747,-0.09608,-0.10092,-0.099368,-0.099397,-0.11229,-0.1086,-0.1033,-0.11297,-0.11053,-0.11672,-0.1118,-0.12113,-0.11645,-0.11674,-0.10771,-0.08359,-0.029041,-0.067071,-0.11754,-0.13615,-0.13759,0.38537,0.54488,-0.41082,-0.12229,-0.093704,-0.06969,-0.065399,-0.05232,-0.017388,0.0060314,0.053672,0.12331,0.19489,0.14521,0.03363,-0.056996,-0.076025,-0.083948,-0.081807,-0.08319,-0.079722,-0.084792,-0.094353,-0.097077,-0.09401,-0.098812,-0.098634,-0.10132,-0.1072,-0.10063,-0.10031,-0.094721,-0.099195,-0.068613,-0.018677,-0.01924,-0.067018,-0.092646,-0.094698,0.2084,0.947,-0.40351,-0.078789,-0.036544,-0.017023,-0.00015006,0.018265,0.040865,0.067899,0.12314,0.2038,0.26862,0.24098,0.10243,0.0014449,-0.028677,-0.034936,-0.037341,-0.028347,-0.027729,-0.033352,-0.033154,-0.039173,-0.039687,-0.044227,-0.042893,-0.040537,-0.043023,-0.043488,-0.039749,-0.037412,-0.035448,-0.039456,-0.033587,-0.024409,0.016974,0.048924,0.012404,-0.0272,-0.045314,-0.038901,0.73241,0.39492,-0.26497,-0.028418,-0.0029473,0.014055,0.027268,0.047714,0.073634,0.11311,0.17299,0.25781,0.3164,0.24447,0.10506,0.023375,0.0051551,-0.00083704,-0.003682,0.0032535,0.0062986,0.0021201,-0.0067684,-0.010657,-0.017045,-0.019771,-0.022006,-0.02752,-0.029685,-0.026244,-0.030237,-0.032741,-0.031931,-0.030357,-0.031197,-0.020574,0.020664,0.050849,0.0071292,-0.042693,-0.055684,-0.029974,0.84448,0.17434,-0.2393,-0.037768,-0.012616,-0.0033561,0.008896,0.030207,0.046164,0.084908,0.14728,0.23682,0.28385,0.19487,0.058849,-0.0085578,-0.028722,-0.034079,-0.033236,-0.031938,-0.030624,-0.036197,-0.042864,-0.039676,-0.048084,-0.050719,-0.053166,-0.053831,-0.055604,-0.056357,-0.054394,-0.058086,-0.056726,-0.057669,-0.052665,-0.048014,-0.014674,0.029493,-0.0047251,-0.050308,-0.068995,-0.073431,0.42492,0.68123,-0.35868,-0.064977,-0.035246,-0.017922,-0.00567,0.0047815,0.029619,0.05741,0.12227,0.19808,0.26152,0.22147,0.081167,-0.020576,-0.052718,-0.061275,-0.061018,-0.062956,-0.057309,-0.068307,-0.071073,-0.079781,-0.089756,-0.090428,-0.090756,-0.090058,-0.098557,-0.09242,-0.096423,-0.094865,-0.10263,-0.099633,-0.10182,-0.095704,-0.061199,-0.017659,-0.060859,-0.11534,-0.13128,-0.12537,0.68555,0.17787,-0.34769,-0.11197,-0.074962,-0.076789,-0.057102,-0.037893,-0.022398,0.016916,0.07185,0.14989,0.19942,0.13376,0.0058758,-0.074911,-0.086789,-0.092341,-0.089077,-0.090857,-0.087942,-0.095364,-0.10028,-0.1053,-0.11147,-0.10674,-0.10833,-0.1164,-0.11665,-0.11645,-0.1186,-0.1207,-0.11379,-0.11215,-0.085281,-0.039214,-0.043406,-0.098404,-0.13762,-0.12558,0.19562,0.86218,-0.447,-0.12311,-0.08197,-0.062519,-0.058292,-0.029891,-0.0098798,0.029054,0.081487,0.16002,0.2406,0.20932,0.074111,-0.028345,-0.068931,-0.067857,-0.076473,-0.071458,-0.060141,-0.072893,-0.077857,-0.084523,-0.084657,-0.085824,-0.086796,-0.090343,-0.086973,-0.090661,-0.097357,-0.08891,-0.084191,-0.08548,-0.083814,-0.080097,-0.058816,-0.0055045,-0.016679,-0.064015,-0.093621,-0.1016,0.24335,0.89895,-0.40872,-0.093236,-0.059317,-0.043577,-0.030682,-0.013732,0.0066745,0.038959,0.091259,0.17172,0.2403,0.20924,0.083299,-0.026624,-0.062273,-0.065784,-0.064008,-0.059658,-0.060325,-0.057099,-0.062028,-0.069607,-0.073993,-0.073395,-0.082279,-0.079259,-0.083104,-0.075733,-0.076146,-0.076194,-0.076621,-0.078608,-0.068118,-0.051761,-0.0012804,-0.016398,-0.064481,-0.10425,-0.10585,0.14498,0.93814,-0.41814,-0.11892,-0.072161,-0.064035,-0.046098,-0.040324,-0.019421,0.012201,0.066927,0.14347,0.21434,0.19315,0.061652,-0.049014,-0.10338,-0.10853,-0.10828,-0.11477,-0.10767,-0.11223,-0.11724,-0.12332,-0.1255,-0.13605,-0.13524,-0.13768,-0.14412,-0.15065,-0.14775,-0.14515,-0.15181,-0.15321,-0.13614,-0.10262,-0.057795,-0.098459,-0.15048,-0.16013,-0.16007,0.57209,0.26336,-0.39887,-0.14661,-0.11382,-0.098418,-0.096108,-0.075837,-0.04534,-0.019124,0.033783,0.11296,0.18001,0.10923,-0.02188,-0.1053,-0.12163,-0.11333,-0.12505,-0.12217,-0.12231,-0.12035,-0.13067,-0.13363,-0.13246,-0.13395,-0.1368,-0.13443,-0.13498,-0.13471,-0.13815,-0.11543,-0.091527,-0.042409,-0.081464,-0.13812,-0.14986,-0.11395,0.90297,-0.0822,-0.28147,-0.10174,-0.071129,-0.06704,-0.051199,-0.028943,-0.0014468,0.03528,0.10618,0.19373,0.21883,0.10748,-0.018113,-0.08963,-0.090186,-0.0985,-0.095193,-0.083654,-0.09177,-0.092382,-0.097864,-0.099822,-0.097286,-0.10602,-0.10103,-0.10293,-0.099361,-0.10595,-0.10349,-0.099699,-0.095787,-0.070081,-0.012793,-0.040329,-0.086652,-0.11685,-0.10583,0.42058,0.68784,-0.39651,-0.089867,-0.055427,-0.044681,-0.028436,-0.011178,0.018807,0.050455,0.10883,0.19544,0.26625,0.21541,0.066235,-0.028422,-0.05459,-0.059718,-0.061934,-0.057583,-0.050044,-0.059646,-0.063556,-0.068049,-0.068454,-0.073695,-0.078687,-0.081416,-0.073038,-0.079585,-0.079704,-0.080201,-0.076131,-0.075293,-0.070764,-0.052214,0.0003142,-0.0091128,-0.050707,-0.089955,-0.087321,0.06802,1.0496,-0.34247,-0.11545,-0.04896,-0.031538,-0.017622,0.00040888,0.013875,0.041013,0.091629,0.1726,0.25698,0.25857,0.13032,0.0078249,-0.031931,-0.038041,-0.045707,-0.044525,-0.037231,-0.043939,-0.05062,-0.053053,-0.05441,-0.05602,-0.061459,-0.058809,-0.064076,-0.061572,-0.064299,-0.061582,-0.067397,-0.067092,-0.068495,-0.067533,-0.069587,-0.050551,-0.0081272,-0.012186,-0.062919,-0.095853,-0.089874,0.052564,1.0121,-0.35453,-0.14446,-0.070738,-0.052785,-0.038234,-0.036404,-0.011109,0.0145,0.055115,0.13187,0.21881,0.2221,0.10129,-0.021789,-0.070069,-0.085065,-0.084561,-0.078873,-0.083856,-0.084619,-0.090285,-0.095204,-0.095856,-0.093975,-0.10352,-0.10453,-0.10765,-0.11083,-0.11187,-0.11384,-0.11226,-0.11487,-0.097096,-0.057681,-0.037746,-0.087521,-0.12777,-0.13816,-0.077866,0.94002,-0.22214,-0.24191,-0.10919,-0.083651,-0.075703,-0.058749,-0.039166,-0.017455,0.022141,0.088805,0.16978,0.20219,0.089671,-0.040638,-0.086615,-0.099067,-0.10405,-0.098194,-0.094253,-0.09548,-0.10072,-0.10672,-0.10457,-0.10554,-0.10729,-0.11118,-0.10105,-0.099704,-0.10695,-0.10488,-0.096354,-0.091263,-0.096468,-0.085801,-0.042049,-0.0011094,-0.034099,-0.08886,-0.10058,-0.074475,0.76513,0.26358,-0.29288,-0.058486,-0.036517,-0.018544,-0.0070675,0.01684,0.037202,0.074986,0.14586,0.22447,0.27903,0.19625,0.056035,-0.018587,-0.035289,-0.044895,-0.040187,-0.034505,-0.032161,-0.043814,-0.044321,-0.04813,-0.050215,-0.05162,-0.052096,-0.049683,-0.049149,-0.054335,-0.054082,-0.050763,-0.05094,-0.05321,-0.053328,-0.049819,-0.038981,-0.01727,0.035816,0.0024595,-0.043037,-0.068617,-0.062646,0.59463,0.51672,-0.32328,-0.057095,-0.019516,-0.0092309,0.0025547,0.023036,0.050616,0.079305,0.14574,0.22813,0.29544,0.23106,0.092664,0.00033299,-0.020882,-0.023386,-0.024419,-0.01879,-0.01489,-0.022616,-0.025877,-0.030352,-0.029968,-0.032653,-0.033935,-0.034873,-0.030467,-0.035349,-0.038017,-0.03961,-0.026669,-0.033323,-0.026597,-0.032417,-0.018527,0.016717,0.047971,0.011562,-0.033529,-0.055019,-0.041355,0.71057,0.36387,-0.27842,-0.041678,-0.015037,-0.0036036,0.0089537,0.019477,0.040248,0.07906,0.13454,0.21944,0.2746,0.19894,0.057616,-0.028066,-0.061718,-0.070386,-0.06563,-0.063214,-0.072862,-0.072664,-0.077567,-0.083935,-0.096375,-0.092051,-0.10111,-0.10838,-0.11226,-0.10879,-0.11882,-0.12116,-0.12408,-0.12431,-0.12004,-0.089717,-0.045531,-0.081407,-0.13188,-0.15472,-0.15226,0.60951,0.25944,-0.39641,-0.14457,-0.11428,-0.11006,-0.090094,-0.072968,-0.052324,-0.022259,0.037689,0.11385,0.17033,0.10041,-0.031795,-0.10897,-0.13213,-0.13511,-0.12826,-0.13012,-0.1257,-0.1337,-0.13798,-0.14117,-0.14321,-0.14903,-0.15227,-0.15182,-0.15161,-0.15018,-0.15364,-0.1538,-0.14933,-0.15254,-0.15147,-0.12111,-0.077852,-0.11639,-0.17307,-0.19001,-0.17346,0.69098,0.13918,-0.40043,-0.17028,-0.14268,-0.13069,-0.11944,-0.099578,-0.074402,-0.037562,0.025596,0.11176,0.16191,0.07376,-0.063302,-0.13913,-0.15596,-0.16453,-0.16112,-0.15132,-0.14919,-0.15476,-0.15935,-0.16317,-0.16186,-0.16854,-0.17044,-0.16494,-0.16744,-0.1656,-0.16484,-0.16306,-0.15932,-0.15938,-0.16011,-0.1549,-0.14873,-0.12947,-0.082582,-0.091652,-0.1362,-0.17002,-0.1676,0.095915,0.90792,-0.47524,-0.171,-0.11934,-0.10715,-0.09524,-0.078337,-0.05303,-0.02208,0.028396,0.11563,0.19596,0.18466,0.045364,-0.066981,-0.10576,-0.11226,-0.10816,-0.102,-0.096083,-0.098053,-0.10084,-0.10908,-0.11095,-0.10949,-0.11103,-0.11185,-0.11282,-0.11275,-0.1132,-0.10912,-0.11049,-0.1083,-0.10413,-0.098276,-0.083289,-0.032832,-0.023325,-0.062952,-0.10555,-0.10932,-0.03826,0.98318,-0.18765,-0.19611,-0.074664,-0.055064,-0.051077,-0.032006,-0.013494,0.014905,0.055651,0.14238,0.22815,0.25569,0.13715,0.0096254,-0.044207,-0.065652,-0.067535,-0.06269,-0.059541,-0.057741,-0.066292,-0.065493,-0.073855,-0.071591,-0.074079,-0.080314,-0.076911,-0.073073,-0.08243,-0.084098,-0.078102,-0.083578,-0.084622,-0.083939,-0.073008,-0.062236,-0.01386,-0.016882,-0.059895,-0.097522,-0.096722,0.033931,0.98986,-0.34012,-0.14948,-0.067169,-0.043098,-0.040752,-0.020679,0.0034154,0.029766,0.073519,0.15384,0.2264,0.2364,0.12375,0.0028257,-0.044326,-0.0509,-0.059127,-0.048556,-0.039177,-0.045699,-0.054881,-0.051859,-0.053452,-0.057506,-0.064869,-0.068836,-0.061737,-0.065502,-0.071001,-0.067519,-0.058117,-0.0573,-0.058256,-0.019964,0.034052,-0.0025397,-0.053167,-0.070008,-0.056306,0.78144,0.27486,-0.28454,-0.048196,-0.016887,-0.0012114,0.0093263,0.026725,0.054604,0.087315,0.15783,0.24519,0.2895,0.21241,0.067746,-0.009974,-0.031546,-0.036938,-0.041254,-0.026926,-0.028981,-0.038626,-0.040229,-0.045918,-0.044613,-0.049352,-0.051794,-0.053855,-0.051781,-0.051644,-0.058258,-0.054295,-0.053722,-0.046577,-0.04622,-0.037503,-0.0055881,0.040605,0.019624,-0.029877,-0.05486,-0.053262,0.37882,0.82651,-0.35423,-0.039047,-0.0078217,0.012192,0.026699,0.045726,0.061235,0.097038,0.15699,0.23929,0.31534,0.27455,0.13529,0.029583,-0.00544,-0.011425,-0.0088085,-0.0064254,-0.0064266,-0.007355,-0.0097164,-0.021857,-0.022881,-0.029241,-0.029486,-0.034568,-0.039696,-0.041714,-0.043422,-0.043132,-0.045605,-0.046061,-0.046711,-0.052886,-0.052474,-0.054981,-0.055233,-0.040141,0.0030362,0.015661,-0.028573,-0.080148,-0.085578,-0.028096,0.9764,-0.088628,-0.20574,-0.06807,-0.047722,-0.036865,-0.029312,-0.013896,0.012369,0.047449,0.11679,0.19867,0.24791,0.14522,0.0069695,-0.059609,-0.077878,-0.081827,-0.090453,-0.082912,-0.086726,-0.090615,-0.096127,-0.098737,-0.10491,-0.11193,-0.11485,-0.11369,-0.12045,-0.12075,-0.12273,-0.12656,-0.12203,-0.12728,-0.1271,-0.12742,-0.1242,-0.12084,-0.11274,-0.084465,-0.043162,-0.086567,-0.14213,-0.14506,-0.13142,0.75387,0.06069,-0.33649,-0.13013,-0.1103,-0.098603,-0.088091,-0.068595,-0.050448,-0.0098886,0.050177,0.1322,0.18016,0.10563,-0.030204,-0.11394,-0.13968,-0.13583,-0.13941,-0.1386,-0.13509,-0.13693,-0.14352,-0.14903,-0.1532,-0.15796,-0.15895,-0.15741,-0.16164,-0.1676,-0.16886,-0.16541,-0.16178,-0.16415,-0.16757,-0.15817,-0.154,-0.12637,-0.075936,-0.11229,-0.16453,-0.18087,-0.17357,0.63309,0.2205,-0.39813,-0.14579,-0.1156,-0.10104,-0.090721,-0.070202,-0.042353,-0.0062167,0.053129,0.1324,0.19587,0.13282,0.0031199,-0.08557,-0.10092,-0.1003,-0.098043,-0.10255,-0.08937,-0.095352,-0.099499,-0.10651,-0.10504,-0.10936,-0.11426,-0.1079,-0.11014,-0.10923,-0.12017,-0.11214,-0.11046,-0.10952,-0.11715,-0.10952,-0.098116,-0.072506,-0.016025,-0.043838,-0.089844,-0.11697,-0.12192,0.37364,0.71158,-0.4067,-0.11152,-0.077431,-0.061672,-0.044128,-0.031343,-0.0065369,0.03676,0.096241,0.17429,0.2505,0.21322,0.075157,-0.031254,-0.066445,-0.064599,-0.062244,-0.063524,-0.054356,-0.047637,-0.054765,-0.062577,-0.064357,-0.067753,-0.070425,-0.073327,-0.070186,-0.071574,-0.070756,-0.071551,-0.070296,-0.067617,-0.069005,-0.06889,-0.063496,-0.067327,-0.069013,-0.071142,-0.055734,-0.008624,0.01861,-0.030408,-0.073017,-0.083443,-0.026289,0.99836,-0.099265,-0.18514,-0.058123,-0.037604,-0.023818,-0.013333,0.003623,0.025116,0.073488,0.1461,0.23121,0.26949,0.18371,0.051762,-0.023067,-0.04128,-0.04169,-0.038968,-0.03543,-0.037788,-0.044573,-0.040782,-0.047693,-0.048477,-0.048741,-0.05669,-0.052486,-0.054958,-0.049005,-0.048283,-0.043088,-0.046383,-0.046227,-0.042799,-0.038978,-0.038653,-0.032109,-0.032177,-0.023807,-0.0075542,0.04851,0.048209,-0.0027563,-0.038871,-0.040875,0.15071,1.0776,-0.32523,-0.06182,-0.0057461,0.014283,0.022711,0.040291,0.056282,0.090468,0.13055,0.20651,0.29234,0.30379,0.18651,0.054856,0.010747,0.0014846,-0.003987,-0.0080872,-0.005709,0.0021107,-0.012853,-0.014232,-0.014463,-0.018627,-0.024929,-0.028223,-0.029218,-0.031569,-0.037476,-0.032887,-0.033938,-0.035222,-0.035441,-0.032418,-0.035503,-0.033922,-0.0268,-0.014704,0.032733,0.043756,-0.01734,-0.050787,-0.062322,0.13604,1.0078,-0.36089,-0.087081,-0.033843,-0.020038,-0.007968,0.0042625,0.031726,0.052853,0.10113,0.17227,0.24131,0.24957,0.13049,0.01588,-0.034648,-0.04813,-0.043132,-0.043668,-0.05321,-0.04866,-0.055692,-0.061982,-0.063198,-0.073672,-0.079065,-0.076276,-0.075198,-0.081983,-0.087617,-0.085272,-0.0785,-0.08462,-0.087353,-0.081296,-0.079112,-0.074784,-0.044173,0.0064505,-0.02131,-0.083795,-0.10331,-0.082291,0.85589,0.14657,-0.28341,-0.072114,-0.050234,-0.033957,-0.024522,-0.010638,0.01852,0.054079,0.1167,0.2061,0.2585,0.18272,0.044006,-0.041054,-0.062742,-0.072998,-0.068439,-0.064375,-0.063068,-0.06689,-0.072269,-0.076647,-0.080144,-0.086628,-0.092192,-0.091609,-0.095063,-0.10045,-0.10312,-0.09762,-0.092968,-0.093745,-0.097737,-0.094646,-0.098175,-0.077556,-0.040578,-0.011236,-0.05785,-0.10891,-0.11451,-0.01606,1.0351,-0.26296,-0.18072,-0.077379,-0.052674,-0.038147,-0.029865,-0.0044641,0.019777,0.062405,0.13582,0.22897,0.26164,0.15362,0.018824,-0.044468,-0.053935,-0.0589,-0.059961,-0.055859,-0.048192,-0.055285,-0.056729,-0.059153,-0.062963,-0.066077,-0.068162,-0.070595,-0.068389,-0.069051,-0.071307,-0.071751,-0.069017,-0.066067,-0.069789,-0.066253,-0.064356,-0.038565,0.022101,0.012289,-0.040206,-0.071694,-0.081104,0.23652,0.93589,-0.39203,-0.086875,-0.048786,-0.029508,-0.018406,-0.010728,0.018136,0.053576,0.094401,0.18237,0.26362,0.25414,0.11273,-0.010872,-0.052658,-0.058466,-0.067247,-0.063876,-0.06239,-0.060836,-0.067834,-0.073708,-0.078738,-0.081279,-0.085352,-0.087558,-0.086561,-0.092346,-0.095088,-0.092449,-0.098617,-0.093479,-0.093432,-0.092521,-0.098906,-0.091433,-0.070391,-0.020378,-0.026484,-0.079058,-0.11498,-0.12225,0.17417,0.85622,-0.42983,-0.12655,-0.080257,-0.055279,-0.051295,-0.039117,-0.012958,0.022355,0.064984,0.14125,0.2126,0.21364,0.088638,-0.023987,-0.065095,-0.067193,-0.071368,-0.065728,-0.06668,-0.063472,-0.071643,-0.078179,-0.074413,-0.072673,-0.080005,-0.084488,-0.084959,-0.082715,-0.088009,-0.08609,-0.083996,-0.080305,-0.083133,-0.079303,-0.055754,-0.0080057,0.001931,-0.045453,-0.085761,-0.085484,0.06858,1.0614,-0.34456,-0.11883,-0.05391,-0.031721,-0.018105,0.005016,0.019892,0.048775,0.097881,0.1835,0.26071,0.27312,0.15415,0.023904,-0.025313,-0.04048,-0.046157,-0.036014,-0.02955,-0.032215,-0.041021,-0.043083,-0.039809,-0.047412,-0.051153,-0.048309,-0.052956,-0.058062,-0.056896,-0.056103,-0.053332,-0.053637,-0.058329,-0.047804,-0.044998,-0.047663,-0.02148,0.038877,0.01525,-0.041915,-0.068782,-0.067545,0.2945,0.90769,-0.38076,-0.062653,-0.026572,-0.012832,-0.0053905,0.011193,0.036228,0.066565,0.1248,0.20942,0.28244,0.26721,0.13189,0.020309,-0.012964,-0.026458,-0.025232,-0.02124,-0.015575,-0.025544,-0.031312,-0.033564,-0.040151,-0.039078,-0.043562,-0.042039,-0.045262,-0.048355,-0.046512,-0.043785,-0.040571,-0.044162,-0.043259,-0.034435,-0.037908,-0.039521,-0.035347,-0.032757,-0.019597,0.015661,0.056453,0.01419,-0.030656,-0.047325,-0.023815,0.89488,0.17346,-0.20421,-0.026309,0.0015764,0.017256,0.028518,0.043267,0.070892,0.11444,0.17616,0.2573,0.32365,0.2544,0.11266,0.022206,0.00020616,-0.0029223,-0.0028672,0.0012756,0.00016579,-0.0034825,-0.011048,-0.01425,-0.019969,-0.022109,-0.027434,-0.033646,-0.035753,-0.034549,-0.036763,-0.042538,-0.04094,-0.038476,-0.03952,-0.038604,-0.03934,-0.042046,-0.042367,-0.044989,-0.029731,0.014679,0.031659,-0.018414,-0.0678,-0.076935,-0.027507,0.9971,-0.10893,-0.19365,-0.062135,-0.049272,-0.030417,-0.01329,0.001571,0.01968,0.063886,0.13335,0.21007,0.25858,0.18002,0.042432,-0.025959,-0.047894,-0.062845,-0.05189,-0.055792,-0.056714,-0.057021,-0.064152,-0.074049,-0.072891,-0.07914,-0.081661,-0.083385,-0.089201,-0.090678,-0.086629,-0.084298,-0.090655,-0.089187,-0.082953,-0.089873,-0.082329,-0.047878,0.0024636,-0.039735,-0.094271,-0.10646,-0.096896,0.78237,0.14229,-0.30629,-0.08797,-0.054202,-0.046082,-0.030738,-0.0081178,0.0070141,0.04811,0.10639,0.18135,0.24146,0.17109,0.043454,-0.037152,-0.052315,-0.061387,-0.058429,-0.059333,-0.057559,-0.067337,-0.064415,-0.073278,-0.075334,-0.077131,-0.079216,-0.082248,-0.083505,-0.088514,-0.086757,-0.078648,-0.084055,-0.08291,-0.085029,-0.071802,-0.055649,-0.0016915,-0.016573,-0.066505,-0.098669,-0.10678,0.20935,0.93016,-0.42088,-0.10422,-0.066725,-0.048381,-0.039165,-0.027738,-0.0021984,0.028967,0.080536,0.15719,0.22987,0.22676,0.097532,-0.022849,-0.068588,-0.071861,-0.082415,-0.078037,-0.076785,-0.074888,-0.084666,-0.08831,-0.093698,-0.095507,-0.098578,-0.099697,-0.10019,-0.10342,-0.10901,-0.10942,-0.11125,-0.10945,-0.1123,-0.10908,-0.11398,-0.097865,-0.048821,-0.029963,-0.07644,-0.12283,-0.1355,-0.072133,0.9567,-0.18186,-0.24053,-0.11495,-0.093254,-0.083955,-0.066601,-0.052329,-0.02601,0.017178,0.087385,0.17356,0.21631,0.11799,-0.014589,-0.086382,-0.10312,-0.10339,-0.10343,-0.098838,-0.098362,-0.10311,-0.10531,-0.1085,-0.1127,-0.1113,-0.10932,-0.11737,-0.11672,-0.1128,-0.11059,-0.11809,-0.11734,-0.10764,-0.1086,-0.10679,-0.10645,-0.07542,-0.01187,-0.039309,-0.094834,-0.12016,-0.1129,0.29554,0.76676,-0.42084,-0.11066,-0.073042,-0.064574,-0.048778,-0.030103,-0.0092005,0.016848,0.080569,0.16242,0.23434,0.21454,0.085531,-0.022663,-0.060474,-0.077709,-0.063621,-0.068071,-0.069438,-0.068162,-0.076116,-0.078763,-0.081231,-0.085867,-0.091275,-0.085882,-0.08648,-0.093875,-0.092992,-0.093255,-0.091389,-0.096652,-0.091645,-0.091441,-0.092037,-0.08214,-0.053643,0.00013614,-0.044217,-0.092051,-0.10561,-0.087557,0.74251,0.18609,-0.3087,-0.077385,-0.054035,-0.045234,-0.02679,-0.01062,0.013122,0.054107,0.11583,0.19614,0.25688,0.19911,0.068096,-0.021421,-0.04804,-0.046152,-0.045248,-0.048095,-0.042234,-0.054267,-0.060883,-0.058104,-0.062035,-0.067989,-0.066632,-0.060724,-0.067934,-0.067885,-0.068927,-0.068126,-0.064809,-0.072149,-0.063089,-0.063537,-0.055063,-0.02808,0.025515,-0.0089649,-0.061653,-0.075557,-0.07769,0.59226,0.46451,-0.33602,-0.061402,-0.023856,-0.012271,-0.0074102,0.022115,0.042688,0.075897,0.13407,0.20473,0.28038,0.24544,0.092703,0.0030366,-0.025853,-0.036122,-0.034764,-0.030889,-0.023831,-0.034769,-0.036058,-0.040867,-0.042845,-0.047804,-0.054388,-0.052176,-0.04784,-0.057235,-0.056287,-0.055803,-0.047175,-0.063293,-0.056625,-0.032941,0.011901,0.0083583,-0.037162,-0.068943,-0.07883,0.10841,1.0569,-0.36072,-0.10722,-0.038346,-0.02326,-0.0066812,0.003813,0.036108,0.060386,0.10784,0.1894,0.27403,0.27917,0.15287,0.024365,-0.02396,-0.040132,-0.040156,-0.033459,-0.026446,-0.032941,-0.038033,-0.043379,-0.049248,-0.0536,-0.058321,-0.057208,-0.055528,-0.060839,-0.065945,-0.061562,-0.071222,-0.064801,-0.064583,-0.06255,-0.061126,-0.062976,-0.057708,-0.037807,0.0038274,0.0082622,-0.033436,-0.071357,-0.075698,0.030722,1.0962,-0.25658,-0.1375,-0.047915,-0.028019,-0.01133,0.0006184,0.013916,0.04583,0.09305,0.16845,0.25262,0.28515,0.18554,0.05859,-0.012752,-0.024852,-0.027054,-0.023324,-0.019988,-0.019753,-0.024116,-0.024104,-0.029745,-0.030752,-0.031671,-0.03652,-0.037549,-0.039849,-0.036435,-0.037497,-0.037792,-0.034829,-0.034293,-0.035704,-0.03694,-0.034439,-0.037366,-0.028649,-0.0037465,0.042689,0.025163,-0.023847,-0.050291,-0.051579,0.27772,0.96316,-0.36651,-0.061822,-0.027822,-0.0052605,0.0048823,0.022271,0.041383,0.070054,0.12053,0.20329,0.28125,0.27223,0.14556,0.027243,-0.014613,-0.0213,-0.027947,-0.025607,-0.025343,-0.023202,-0.034993,-0.036002,-0.035987,-0.03478,-0.046262,-0.043036,-0.04125,-0.042397,-0.050099,-0.04403,-0.042948,-0.043037,-0.042249,-0.041736,-0.040808,-0.03934,-0.025778,0.0097841,0.05054,0.0014594,-0.05252,-0.062712,-0.011903,1.0018,-0.068008,-0.19156,-0.039,-0.012343,-0.0080342,1.4685e-05,0.021446,0.050008,0.087844,0.15463,0.25078,0.29183,0.20205,0.066549,-0.0084526,-0.036792,-0.041002,-0.037849,-0.040298,-0.035677,-0.043438,-0.053087,-0.054664,-0.056123,-0.069201,-0.067891,-0.067677,-0.070269,-0.071665,-0.071102,-0.078645,-0.074164,-0.074178,-0.076282,-0.055107,5.1755e-05,-0.0056164,-0.057851,-0.088349,-0.098708,0.13279,0.94324,-0.40106,-0.10786,-0.067794,-0.041813,-0.031173,-0.021253,-0.0025373,0.0288,0.081309,0.15403,0.23422,0.23301,0.11412,-0.0010579,-0.05076,-0.065544,-0.065811,-0.05704,-0.052797,-0.060758,-0.057336,-0.070612,-0.071817,-0.071261,-0.07608,-0.076884,-0.070767,-0.075931,-0.082273,-0.074927,-0.076712,-0.07823,-0.066299,-0.036592,0.011412,-0.027544,-0.080337,-0.10129,-0.083376,0.8213,0.1819,-0.29001,-0.077743,-0.046666,-0.037705,-0.025215,-0.0063481,0.020778,0.062342,0.12631,0.21856,0.2774,0.20827,0.05541,-0.027358,-0.052658,-0.053949,-0.052875,-0.052586,-0.049907,-0.058583,-0.06108,-0.060475,-0.066227,-0.071759,-0.068945,-0.074136,-0.07375,-0.078823,-0.079292,-0.07456,-0.077977,-0.072499,-0.073133,-0.072446,-0.065446,-0.042558,0.022401,-0.0031582,-0.056667,-0.093647,-0.087277,0.4289,0.6858,-0.36613,-0.077062,-0.042341,-0.031516,-0.021234,-0.001121,0.020675,0.054833,0.11209,0.20131,0.2754,0.24987,0.1119,0.0033017,-0.036673,-0.042263,-0.047906,-0.044833,-0.045302,-0.049565,-0.051913,-0.058862,-0.064774,-0.06761,-0.066593,-0.069723,-0.068845,-0.07249,-0.075578,-0.074072,-0.071771,-0.077786,-0.075703,-0.076953,-0.078882,-0.070899,-0.027785,0.012845,-0.036059,-0.08293,-0.094356,-0.06028,0.89876,0.046803,-0.2377,-0.067827,-0.041892,-0.029477,-0.019232,0.0040402,0.026193,0.064438,0.12737,0.21633,0.27074,0.19338,0.05807,-0.021648,-0.042411,-0.050619,-0.050431,-0.042357,-0.048831,-0.056392,-0.059455,-0.063375,-0.065,-0.071024,-0.070549,-0.068208,-0.069108,-0.070272,-0.069973,-0.065008,-0.072158,-0.07594,-0.073117,-0.068164,-0.047687,0.0020932,-0.0044078,-0.054312,-0.091855,-0.092497,0.21641,0.88253,-0.41155,-0.11394,-0.065168,-0.050128,-0.040867,-0.029339,-0.00914,0.018713,0.068433,0.14382,0.21948,0.21813,0.093197,-0.0289,-0.071959,-0.083652,-0.086429,-0.084384,-0.087661,-0.091106,-0.10441,-0.106,-0.10866,-0.11644,-0.11431,-0.12266,-0.11904,-0.1179,-0.12239,-0.12427,-0.12925,-0.12152,-0.12196,-0.09441,-0.041296,-0.060666,-0.11665,-0.14246,-0.14629,0.40493,0.53622,-0.42169,-0.13132,-0.099713,-0.076434,-0.07546,-0.056341,-0.029041,0.0041548,0.051627,0.12623,0.21147,0.17062,0.040136,-0.05692,-0.080631,-0.092125,-0.089954,-0.086324,-0.083498,-0.084694,-0.09027,-0.093022,-0.098384,-0.09128,-0.098049,-0.094623,-0.10257,-0.094485,-0.10095,-0.097562,-0.094724,-0.091665,-0.088755,-0.058049,0.0017699,-0.018734,-0.077452,-0.10557,-0.094539,0.50997,0.57473,-0.36933,-0.079356,-0.049509,-0.036236,-0.020162,-0.0053636,0.020895,0.05965,0.11925,0.19748,0.26808,0.23329,0.098624,-0.008057,-0.038642,-0.044112,-0.044871,-0.045218,-0.043037,-0.045698,-0.053095,-0.060254,-0.056343,-0.06183,-0.061172,-0.068017,-0.067922,-0.069317,-0.070941,-0.074642,-0.070182,-0.071352,-0.074089,-0.065731,-0.033201,0.015366,-0.023563,-0.077182,-0.095929,-0.076015,0.75929,0.25517,-0.28823,-0.070292,-0.048527,-0.036256,-0.021537,-0.0074927,0.01305,0.052718,0.11561,0.19808,0.26335,0.1997,0.060543,-0.025946,-0.051827,-0.061815,-0.060949,-0.058843,-0.061094,-0.067708,-0.070724,-0.075456,-0.07938,-0.081138,-0.081269,-0.086651,-0.084063,-0.085448,-0.084769,-0.085625,-0.083071,-0.082137,-0.078367,-0.065789,-0.027473,0.009344,-0.033507,-0.088371,-0.10024,-0.035427,0.97787,-0.1359,-0.20386,-0.068797,-0.049694,-0.03982,-0.030448,-0.01139,0.019635,0.057944,0.12363,0.2068,0.25281,0.15995,0.022972,-0.04818,-0.062554,-0.070012,-0.073435,-0.074647,-0.075969,-0.076698,-0.0875,-0.087274,-0.092518,-0.091745,-0.1021,-0.096491,-0.10041,-0.10541,-0.1049,-0.10219,-0.097542,-0.10058,-0.10295,-0.076525,-0.019781,-0.022933,-0.080463,-0.11896,-0.12128,0.10901,0.90131,-0.42923,-0.13269,-0.082725,-0.063595,-0.0577,-0.034855,-0.016113,0.0070598,0.057016,0.12914,0.20251,0.21965,0.094758,-0.020418,-0.066242,-0.078297,-0.080513,-0.074659,-0.075226,-0.079692,-0.084096,-0.090487,-0.090212,-0.10126,-0.098458,-0.099051,-0.10572,-0.10453,-0.10494,-0.1103,-0.10647,-0.09873,-0.054444,-0.021721,-0.077557,-0.11926,-0.13505,-0.088082,0.93035,-0.19328,-0.25489,-0.11014,-0.080751,-0.071052,-0.055728,-0.042122,-0.01399,0.018133,0.086861,0.16222,0.20679,0.12057,-0.017567,-0.072915,-0.093113,-0.096174,-0.092314,-0.089748,-0.090923,-0.10115,-0.10278,-0.10962,-0.11153,-0.1118,-0.11973,-0.11515,-0.12036,-0.12293,-0.12341,-0.12316,-0.12754,-0.12111,-0.099199,-0.036142,-0.06578,-0.11283,-0.14281,-0.14187,0.42704,0.5743,-0.42954,-0.1298,-0.093164,-0.083936,-0.069823,-0.054207,-0.031117,0.0015472,0.05787,0.13897,0.20966,0.17627,0.035681,-0.067527,-0.09618,-0.10661,-0.10368,-0.099547,-0.097591,-0.099846,-0.11098,-0.11587,-0.11733,-0.12045,-0.12368,-0.123,-0.12948,-0.1268,-0.12679,-0.12884,-0.12801,-0.12788,-0.12608,-0.12248,-0.097366,-0.060419,-0.056216,-0.097292,-0.13453,-0.14184,0.11164,0.97057,-0.45351,-0.14993,-0.099135,-0.082769,-0.069919,-0.052084,-0.035768,-0.0021514,0.046925,0.12757,0.20446,0.21603,0.088765,-0.028628,-0.079555,-0.086162,-0.084957,-0.089421,-0.085465,-0.090073,-0.093189,-0.096303,-0.10249,-0.10269,-0.099508,-0.10483,-0.1027,-0.10003,-0.099408,-0.098759,-0.098917,-0.096742,-0.091784,-0.089179,-0.088254,-0.081196,-0.050439,-0.0018507,-0.017483,-0.061807,-0.091454,-0.097906,0.2902,0.84931,-0.39706,-0.089707,-0.049982,-0.033239,-0.022768,-0.0076672,0.013893,0.045863,0.1006,0.18181,0.25993,0.24665,0.11915,0.01042,-0.033719,-0.038286,-0.039684,-0.037366,-0.039188,-0.039248,-0.04146,-0.046639,-0.050407,-0.049411,-0.047965,-0.056396,-0.055622,-0.054943,-0.053077,-0.058743,-0.060183,-0.056863,-0.054461,-0.057064,-0.057061,-0.039457,0.014449,0.022146,-0.027697,-0.063431,-0.072277,0.01744,1.0428,-0.20426,-0.14995,-0.043226,-0.024437,-0.013627,0.0025781,0.018813,0.044037,0.083459,0.16466,0.24173,0.27723,0.18468,0.055144,-0.018623,-0.035099,-0.039534,-0.036823,-0.035277,-0.042856,-0.047099,-0.045079,-0.044137,-0.055783,-0.056623,-0.057463,-0.059432,-0.067891,-0.064687,-0.061516,-0.065531,-0.060896,-0.066039,-0.057161,-0.065636,-0.037774,0.010719,0.0036792,-0.051448,-0.084071,-0.08,0.12379,0.94446,-0.39242,-0.11395,-0.050767,-0.036742,-0.030734,-0.010792,0.0098233,0.042439,0.084076,0.15352,0.23149,0.24247,0.12889,0.012608,-0.027907,-0.05102,-0.047744,-0.035219,-0.044958,-0.039893,-0.051281,-0.052663,-0.055214,-0.060404,-0.063023,-0.065753,-0.070674,-0.067079,-0.074639,-0.074784,-0.073414,-0.071922,-0.070392,-0.049217,0.011485,-0.026076,-0.079563,-0.10024,-0.095022,0.59066,0.40826,-0.35334,-0.084825,-0.053563,-0.043879,-0.029998,-0.018708,0.0077942,0.032122,0.085838,0.16499,0.21936,0.17634,0.043401,-0.049389,-0.07439,-0.080803,-0.079834,-0.081102,-0.076886,-0.08496,-0.089191,-0.09707,-0.10101,-0.10475,-0.10348,-0.11252,-0.11418,-0.11247,-0.11422,-0.11633,-0.11772,-0.12204,-0.1155,-0.090829,-0.043997,-0.059214,-0.10463,-0.13346,-0.13859,0.23797,0.83338,-0.45092,-0.13547,-0.099412,-0.080043,-0.067937,-0.056083,-0.031286,0.0025247,0.055252,0.12972,0.20078,0.18706,0.063697,-0.053549,-0.095348,-0.096891,-0.097786,-0.097415,-0.095566,-0.095444,-0.095804,-0.10511,-0.11028,-0.11069,-0.10839,-0.10758,-0.10757,-0.10967,-0.10576,-0.10454,-0.10495,-0.10511,-0.099559,-0.095094,-0.083389,-0.033274,-0.018738,-0.060507,-0.10544,-0.10947,-0.028936,1.0005,-0.1995,-0.18766,-0.073676,-0.049153,-0.039224,-0.022954,3.4307e-05,0.025782,0.065012,0.13571,0.2213,0.26168,0.1647,0.039514,-0.026064,-0.043612,-0.041088,-0.038748,-0.033175,-0.033833,-0.040149,-0.039982,-0.046976,-0.048275,-0.046179,-0.046542,-0.041967,-0.044446,-0.051385,-0.04324,-0.04291,-0.040263,-0.043642,-0.03758,-0.038478,-0.044957,-0.031397,0.0020748,0.048603,0.006279,-0.046371,-0.057137,-0.045064,0.74401,0.31178,-0.28051,-0.025361,-0.010213,0.005734,0.016638,0.03645,0.056065,0.086246,0.14529,0.23467,0.28804,0.24881,0.10994,0.016975,-0.0012224,-0.014031,-0.014028,-0.0070877,-0.0007401,-0.0094221,-0.015834,-0.00908,-0.021769,-0.019479,-0.024814,-0.018074,-0.029111,-0.023598,-0.024844,-0.028153,-0.027737,-0.027945,-0.024583,-0.018656,0.01193,0.049125,0.019,-0.032718,-0.05168,-0.040808,0.78864,0.29118,-0.25966,-0.024904,0.007978,0.017928,0.031471,0.045815,0.065459,0.10784,0.15865,0.22668,0.29218,0.24504,0.1145,0.030421,0.0038051,0.0042194,0.003421,0.0017878,0.0054659,0.0038911,-0.0032132,-0.0079296,-0.011357,-0.012353,-0.0091841,-0.0089699,-0.02039,-0.02389,-0.017251,-0.017951,-0.023882,-0.025587,-0.012763,-0.0022316,0.034783,0.048304,0.0089537,-0.039874,-0.042621,0.12198,1.1426,-0.30805,-0.070716,-0.0016905,0.013356,0.027265,0.042091,0.061936,0.087161,0.12823,0.20521,0.28574,0.30025,0.18847,0.059946,-0.00028124,-0.010111,-0.016668,-0.015497,-0.018312,-0.019076,-0.025789,-0.03233,-0.037446,-0.044566,-0.045285,-0.046893,-0.050224,-0.048793,-0.050744,-0.052374,-0.055515,-0.055372,-0.06025,-0.058424,-0.052163,-0.014478,0.025004,-0.019264,-0.068973,-0.081868,-0.059294,0.85218,0.13368,-0.25896,-0.070431,-0.041938,-0.030296,-0.0195,-0.003221,0.01806,0.054041,0.12008,0.19918,0.254,0.18505,0.051327,-0.036212,-0.058606,-0.063675,-0.066249,-0.060981,-0.063978,-0.071332,-0.071051,-0.076097,-0.079447,-0.07936,-0.081422,-0.078432,-0.08029,-0.080685,-0.078436,-0.076555,-0.077297,-0.075741,-0.066107,-0.049187,0.0044729,-0.01154,-0.055026,-0.090593,-0.092328,0.15145,0.97909,-0.39261,-0.095761,-0.046415,-0.024951,-0.016287,-0.0010435,0.017433,0.053348,0.095254,0.17279,0.25261,0.25657,0.1373,0.016414,-0.027183,-0.038517,-0.041226,-0.044535,-0.040941,-0.040875,-0.043439,-0.049073,-0.054025,-0.054267,-0.054642,-0.064684,-0.060252,-0.055669,-0.053841,-0.061149,-0.059941,-0.055977,-0.061959,-0.057728,-0.033636,0.016738,0.0048041,-0.046531,-0.082766,-0.07934,0.23448,0.88842,-0.40143,-0.08442,-0.046947,-0.03151,-0.02078,-0.004941,0.011916,0.043114,0.091055,0.16583,0.24253,0.23172,0.10742,-0.0042409,-0.047614,-0.063984,-0.06633,-0.062486,-0.064627,-0.07947,-0.077038,-0.079568,-0.085572,-0.089035,-0.087833,-0.086667,-0.087848,-0.092162,-0.090078,-0.090103,-0.092664,-0.079639,-0.035255,-0.017571,-0.063898,-0.10801,-0.11775,-0.02594,0.99312,-0.28014,-0.1875,-0.079807,-0.06175,-0.046566,-0.029257,-0.019995,0.012383,0.045375,0.10789,0.193,0.21804,0.10786,-0.011592,-0.064595,-0.081737,-0.085946,-0.087216,-0.081464,-0.087425,-0.09128,-0.09657,-0.092488,-0.098071,-0.10548,-0.10197,-0.10804,-0.10722,-0.10572,-0.10784,-0.10584,-0.10262,-0.079047,-0.02546,-0.061986,-0.10687,-0.12938,-0.12889,0.59243,0.38488,-0.37877,-0.11116,-0.072512,-0.054965,-0.052509,-0.029078,0.00053557,0.024745,0.090253,0.16554,0.23077,0.18189,0.037389,-0.054393,-0.078333,-0.085302,-0.088441,-0.082598,-0.075967,-0.089998,-0.091882,-0.097013,-0.10124,-0.10189,-0.10318,-0.10794,-0.1028,-0.098444,-0.10544,-0.10398,-0.098057,-0.10068,-0.097753,-0.094949,-0.059643,-0.014667,-0.044588,-0.091392,-0.11119,-0.11304,0.38719,0.70466,-0.40137,-0.098097,-0.068172,-0.051276,-0.038424,-0.022344,-0.00091851,0.030716,0.083948,0.16722,0.23601,0.20583,0.079123,-0.029686,-0.066589,-0.074155,-0.075104,-0.075162,-0.07632,-0.080864,-0.083313,-0.08796,-0.091463,-0.088906,-0.08854,-0.089303,-0.092436,-0.093981,-0.087814,-0.090447,-0.091919,-0.090271,-0.091777,-0.085221,-0.068659,-0.01466,-0.013561,-0.05445,-0.096523,-0.10185,0.032466,1.0451,-0.31722,-0.13769,-0.060692,-0.037523,-0.032103,-0.016781,0.0016973,0.031131,0.074408,0.14891,0.23418,0.25345,0.13933,0.010766,-0.04399,-0.060086,-0.066047,-0.06346,-0.060016,-0.064145,-0.073616,-0.072138,-0.0811,-0.083489,-0.085558,-0.083302,-0.088682,-0.085864,-0.091978,-0.090411,-0.095525,-0.092041,-0.089635,-0.087899,-0.095576,-0.082384,-0.058709,-0.014551,-0.037213,-0.089243,-0.1136,-0.11218,0.37527,0.64855,-0.40534,-0.11363,-0.074326,-0.063846,-0.051927,-0.040685,-0.025068,0.0093998,0.060588,0.13158,0.20068,0.18769,0.047788,-0.064459,-0.098857,-0.10033,-0.11124,-0.11062,-0.10659,-0.11813,-0.117,-0.12246,-0.13289,-0.1293,-0.13415,-0.13847,-0.1412,-0.13882,-0.14429,-0.14651,-0.14191,-0.14191,-0.14186,-0.11284,-0.062498,-0.083823,-0.13681,-0.16114,-0.1624,0.28497,0.64127,-0.44409,-0.14747,-0.1155,-0.091124,-0.082742,-0.066545,-0.046689,-0.01568,0.031822,0.11703,0.17846,0.16013,0.026913,-0.07121,-0.10986,-0.11328,-0.11464,-0.10442,-0.10893,-0.11844,-0.11955,-0.12248,-0.11979,-0.12248,-0.12527,-0.1282,-0.12316,-0.12129,-0.12002,-0.12992,-0.12381,-0.11759,-0.10868,-0.068277,-0.033071,-0.072217,-0.11595,-0.12039,-0.062187,0.93715,-0.17767,-0.231,-0.083294,-0.065711,-0.047288,-0.030149,-0.012067,0.018333,0.059434,0.12613,0.21429,0.25414,0.16199,0.037161,-0.042556,-0.059971,-0.060112,-0.050646,-0.054567,-0.051923,-0.05645,-0.059923,-0.064439,-0.068294,-0.072132,-0.075029,-0.066984,-0.076114,-0.082871,-0.07812,-0.07879,-0.079381,-0.081576,-0.07647,-0.070205,-0.04351,0.005514,-0.022284,-0.069923,-0.096751,-0.091662,0.59065,0.49402,-0.34983,-0.077292,-0.045678,-0.030515,-0.01671,-0.004124,0.021187,0.065557,0.12588,0.20576,0.27835,0.23429,0.097755,-0.0052481,-0.032204,-0.032198,-0.035956,-0.030877,-0.028791,-0.027626,-0.0381,-0.040413,-0.03824,-0.039495,-0.038314,-0.040689,-0.039293,-0.039743,-0.040267,-0.039215,-0.035622,-0.029603,-0.024118,-0.027915,-0.016302,0.023666,0.059499,0.017863,-0.025363,-0.039341,-0.015458,0.85744,0.22114,-0.21485,-0.015963,0.0089036,0.023078,0.037545,0.059639,0.078062,0.11664,0.18293,0.2682,0.3264,0.25973,0.12556,0.034899,0.014111,0.015713,0.013249,0.014691,0.015,0.015781,0.0082776,0.0027981,0.002011,-0.00039506,0.0019874,0.00025049,-0.0023342,-0.0029001,-0.00045435,-0.0017562,-0.00068535,-0.00039278,0.0012123,-0.00060801,0.010529,0.044766,0.096366,0.049979,0.0022537,-0.019638,-0.0015158,0.75578,0.40633,-0.23667,-0.0028878,0.029333,0.042916,0.054273,0.069052,0.088531,0.12667,0.18481,0.27082,0.32937,0.27311,0.14154,0.050166,0.020878,0.011961,0.0090354,0.015722,0.010043,0.0066675,0.0076933,-7.432e-05,-0.0062216,-0.0038901,-0.0061096,-0.005617,-0.0092968,-0.011042,-0.01056,-0.010266,-0.010585,-0.013541,-0.0047296,-0.0025663,0.010224,0.04925,0.070688,0.017612,-0.026323,-0.029612,0.063077,1.0642,-0.21972,-0.10402,0.0009453,0.023951,0.033423,0.040184,0.058613,0.08717,0.12681,0.18876,0.26485,0.29626,0.20597,0.081318,0.016428,0.010007,0.0087084,0.0074211,0.018571,0.015179,0.014885,0.014528,0.015631,0.017428,0.019675,0.013721,0.020443,0.025861,0.031011,0.02972,0.038517,0.042451,0.041841,0.064077,0.093101,0.13187,0.083189,0.048489,0.028681,0.11597,1.1528,-0.09501,-0.04857,0.073276,0.0965,0.11281,0.13249,0.1477,0.17937,0.21728,0.28444,0.36636,0.39384,0.29671,0.16861,0.10696,0.08562,0.084268,0.083437,0.0869,0.072303,0.067455,0.068383,0.060331,0.051658,0.044567,0.044866,0.043529,0.039468,0.037243,0.036052,0.036036,0.032212,0.028043,0.024444,0.033772,0.069835,0.10441,0.061023,0.0059982,-0.010298,-0.0026262,0.79219,0.38743,-0.24714,-0.01507,0.0073693,0.021127,0.027855,0.040881,0.059773,0.090187,0.14743,0.22369,0.28802,0.22732,0.086938,-0.010516,-0.039036,-0.049195,-0.056263,-0.057006,-0.061453,-0.06669,-0.069096,-0.078082,-0.085748,-0.085173,-0.092925,-0.08814,-0.093411,-0.093855,-0.097262,-0.097958,-0.099227,-0.1018,-0.10318,-0.10253,-0.07923,-0.025349,-0.047362,-0.1021,-0.12908,-0.12982,0.32064,0.69358,-0.42756,-0.12142,-0.094013,-0.081818,-0.07189,-0.059257,-0.039091,-0.010711,0.044814,0.12848,0.20208,0.17893,0.053656,-0.051014,-0.085628,-0.096722,-0.097545,-0.095349,-0.096611,-0.099076,-0.10921,-0.10974,-0.11422,-0.11657,-0.12151,-0.12097,-0.12099,-0.1267,-0.12633,-0.11988,-0.12919,-0.12576,-0.12855,-0.12315,-0.12768,-0.12279,-0.099873,-0.047557,-0.056464,-0.10568,-0.13605,-0.13343,0.14048,0.87024,-0.44371,-0.13089,-0.086756,-0.071287,-0.052285,-0.034459,-0.016088,0.016955,0.072145,0.15017,0.23005,0.23773,0.1186,0.004289,-0.044709,-0.052773,-0.050611,-0.056076,-0.051651,-0.062639,-0.063094,-0.063474,-0.066666,-0.074346,-0.070456,-0.070286,-0.072623,-0.076135,-0.074297,-0.073866,-0.082621,-0.083095,-0.081177,-0.080658,-0.053656,-0.0032993,-0.045412,-0.092253,-0.10372,-0.11383,0.61945,0.34635,-0.3552,-0.09147,-0.063463,-0.038008,-0.035781,-0.010721,0.010907,0.046854,0.11105,0.18816,0.25551,0.2118,0.082119,-0.0083973,-0.035777,-0.034974,-0.038559,-0.032246,-0.037339,-0.042725,-0.050171,-0.053388,-0.059227,-0.059461,-0.066978,-0.069115,-0.073057,-0.068456,-0.072133,-0.073294,-0.07677,-0.075197,-0.074353,-0.059852,-0.023895,-0.0082504,-0.051152,-0.10164,-0.10852,-0.0097789,1.0471,-0.29007,-0.19035,-0.094693,-0.074713,-0.064203,-0.050729,-0.036366,-0.0063534,0.0347,0.11017,0.1869,0.22233,0.11506,-0.026455,-0.091583,-0.10071,-0.106,-0.10723,-0.10117,-0.10617,-0.11118,-0.11428,-0.11559,-0.12011,-0.12442,-0.12537,-0.1259,-0.12365,-0.1237,-0.12613,-0.1229,-0.12001,-0.12529,-0.1212,-0.12019,-0.11854,-0.1142,-0.095749,-0.049616,-0.041131,-0.083146,-0.12225,-0.12835,0.010265,1.0256,-0.35478,-0.16875,-0.090016,-0.06883,-0.061094,-0.048622,-0.026406,-0.0012318,0.04097,0.12578,0.21178,0.24044,0.13332,0.0052791,-0.057705,-0.072264,-0.072919,-0.068951,-0.062993,-0.06613,-0.070735,-0.073417,-0.071884,-0.070551,-0.073188,-0.067398,-0.065263,-0.066423,-0.062971,-0.057434,-0.055711,-0.052569,-0.043581,-0.045131,-0.044125,-0.042388,-0.03686,-0.0038515,0.046159,0.029171,-0.016073,-0.034969,-0.035152,0.31849,0.87574,-0.34912,-0.033196,0.0048026,0.023026,0.028111,0.049736,0.066619,0.099699,0.15628,0.23144,0.31151,0.30003,0.17259,0.0659,0.020362,0.003902,0.0011439,0.0017482,-0.004832,-0.012071,-0.018297,-0.015078,-0.026919,-0.027459,-0.023828,-0.026715,-0.039044,-0.043521,-0.041544,-0.051103,-0.053857,-0.058131,-0.054723,0.0049791,0.038014,0.010797,-0.036795,-0.079936,-0.090687,0.024942,1.0107,-0.33002,-0.15503,-0.065705,-0.045607,-0.029842,-0.019214,0.0019671,0.03005,0.07646,0.14228,0.21682,0.24111,0.12947,-0.0041682,-0.060822,-0.073824,-0.084308,-0.080335,-0.07765,-0.092142,-0.092642,-0.10355,-0.11138,-0.11098,-0.11579,-0.12364,-0.13087,-0.12513,-0.13224,-0.14039,-0.10669,-0.037576,-0.015791,-0.080378,-0.15605,-0.18231,-0.18366,0.47408,0.40503,-0.45025,-0.1759,-0.14511,-0.12767,-0.1201,-0.10243,-0.07297,-0.046805,0.021044,0.11027,0.17661,0.11449,-0.031569,-0.12264,-0.15551,-0.16927,-0.16605,-0.16122,-0.16535,-0.16687,-0.16824,-0.17951,-0.18526,-0.18829,-0.19043,-0.18983,-0.19605,-0.19923,-0.19652,-0.20118,-0.19875,-0.19807,-0.19596,-0.18475,-0.10795,-0.067341,-0.10979,-0.19361,-0.2282,-0.23669,0.16173,0.7249,-0.55235,-0.23374,-0.19884,-0.17268,-0.15711,-0.14332,-0.11386,-0.078676,-0.019825,0.072507,0.14096,0.12694,-0.0020368,-0.11455,-0.15482,-0.15953,-0.15801,-0.15631,-0.15969,-0.15535,-0.15947,-0.16689,-0.17155,-0.16475,-0.1698,-0.16852,-0.17019,-0.16667,-0.16732,-0.16522,-0.16244,-0.16053,-0.1672,-0.16612,-0.16199,-0.15653,-0.13735,-0.065123,-0.016458,-0.079443,-0.15316,-0.18304,-0.17919,0.49344,0.40725,-0.43247,-0.17455,-0.13558,-0.12439,-0.11033,-0.083708,-0.053085,-0.019277,0.04426,0.13611,0.2118,0.17433,0.039657,-0.057256,-0.086708,-0.092319,-0.092349,-0.089538,-0.090277,-0.094581,-0.10091,-0.10312,-0.10602,-0.10683,-0.10776,-0.10887,-0.11213,-0.11423,-0.11196,-0.11185,-0.10762,-0.10449,-0.10053,-0.098492,-0.093673,-0.046088,0.014037,0.035622,-0.03584,-0.09996,-0.11911,-0.081512,0.90655,-0.018586,-0.24915,-0.093022,-0.066844,-0.050465,-0.032861,-0.011896,0.016102,0.05856,0.12899,0.21084,0.26372,0.18842,0.047969,-0.034415,-0.053852,-0.054446,-0.052279,-0.052374,-0.053333,-0.062759,-0.066085,-0.069038,-0.078638,-0.080608,-0.086395,-0.080861,-0.088137,-0.085281,-0.090059,-0.085398,-0.087451,-0.087569,-0.082905,-0.033958,0.023161,0.03824,-0.039994,-0.10978,-0.12329,-0.083145,0.90611,-0.080374,-0.25567,-0.10007,-0.074268,-0.063163,-0.044398,-0.018529,0.0037415,0.04407,0.11392,0.19915,0.24301,0.15796,0.027402,-0.054276,-0.067015,-0.075741,-0.076424,-0.078222,-0.085666,-0.086714,-0.08987,-0.098638,-0.10669,-0.10871,-0.10412,-0.11207,-0.11326,-0.11088,-0.11206,-0.11331,-0.11595,-0.11989,-0.12187,-0.12322,-0.10197,-0.02759,0.02,-0.040728,-0.11849,-0.14503,-0.14426,0.4275,0.53426,-0.41432,-0.13789,-0.1058,-0.090337,-0.073523,-0.054518,-0.019581,0.01294,0.082,0.16401,0.24297,0.21053,0.076652,-0.028351,-0.061545,-0.066759,-0.071002,-0.056228,-0.054936,-0.059571,-0.064905,-0.067375,-0.067968,-0.073642,-0.071988,-0.072318,-0.074024,-0.066504,-0.069931,-0.069245,-0.062836,-0.070185,-0.067462,-0.060647,-0.016012,0.040963,0.056959,-0.023879,-0.092039,-0.098947,-0.087052,0.89301,-0.029949,-0.26283,-0.083147,-0.059818,-0.042762,-0.032575,-0.012756,0.016814,0.051604,0.11526,0.18926,0.24658,0.17569,0.049426,-0.041176,-0.042058,-0.057836,-0.063841,-0.05501,-0.060863,-0.06688,-0.075659,-0.080466,-0.085238,-0.077864,-0.088776,-0.091542,-0.090063,-0.092635,-0.099061,-0.096223,-0.097185,-0.099025,-0.062823,0.0076647,0.018353,-0.048283,-0.12372,-0.14335,-0.12605,0.8056,0.04112,-0.33248,-0.11813,-0.086914,-0.078502,-0.064193,-0.045474,-0.013837,0.024185,0.083098,0.16729,0.22612,0.15837,0.023104,-0.055567,-0.083331,-0.093067,-0.086296,-0.079274,-0.083342,-0.094885,-0.098495,-0.098726,-0.10258,-0.10859,-0.10033,-0.10997,-0.1074,-0.11148,-0.10522,-0.11058,-0.10033,-0.036013,0.011081,0.0069143,-0.072639,-0.12847,-0.13425,-0.043352,1.0309,-0.2916,-0.21079,-0.095232,-0.072224,-0.060272,-0.044062,-0.021182,0.017038,0.057006,0.13311,0.22461,0.25368,0.1516,0.0089236,-0.044769,-0.055145,-0.055765,-0.058665,-0.050833,-0.052082,-0.056582,-0.060761,-0.068143,-0.069006,-0.065374,-0.075734,-0.06914,-0.071931,-0.076919,-0.078994,-0.072088,-0.064551,-0.075173,-0.068246,-0.074501,-0.069886,-0.073309,-0.064649,0.012888,0.057018,0.027338,-0.052066,-0.088319,-0.1004,0.12314,1.0499,-0.40478,-0.11323,-0.070848,-0.050158,-0.033274,-0.012863,0.012454,0.040422,0.089009,0.16854,0.24905,0.26058,0.15407,0.028576,-0.025363,-0.038092,-0.044218,-0.040014,-0.042636,-0.047574,-0.050694,-0.051367,-0.060341,-0.059752,-0.066159,-0.061901,-0.061668,-0.06622,-0.063651,-0.063117,-0.068755,-0.067508,-0.062425,-0.057187,-0.058891,-0.065589,-0.060877,-0.049078,0.024805,0.071393,0.034803,-0.044365,-0.084273,-0.098249,0.21335,0.95775,-0.40749,-0.10507,-0.061383,-0.044961,-0.031103,-0.014642,0.014955,0.044505,0.095034,0.17742,0.26088,0.26328,0.14447,0.02714,-0.020243,-0.028125,-0.02922,-0.026769,-0.026273,-0.026244,-0.032779,-0.033869,-0.03328,-0.033721,-0.037918,-0.037137,-0.032467,-0.029441,-0.0363,-0.033582,-0.031734,-0.029857,-0.02778,-0.0316,-0.024211,-0.022075,-0.023715,-0.00040591,0.074715,0.12438,0.052833,-0.025052,-0.049472,-0.048952,0.61334,0.52449,-0.30289,-0.041172,-0.011226,0.0037015,0.016035,0.034962,0.062024,0.097224,0.15681,0.24232,0.3109,0.282,0.1446,0.039891,0.002225,-0.0063834,-0.010117,-0.0088777,-0.0070565,-0.019383,-0.027853,-0.03229,-0.034187,-0.043417,-0.050511,-0.051519,-0.050201,-0.056293,-0.063456,-0.061149,-0.066865,-0.070882,-0.074746,-0.069804,-0.048247,0.014929,0.044394,-0.019912,-0.096805,-0.12997,-0.133,0.58967,0.32838,-0.37998,-0.13223,-0.098613,-0.080524,-0.074792,-0.050371,-0.028361,0.0055098,0.06432,0.1287,0.20411,0.16069,0.030536,-0.066341,-0.091614,-0.10093,-0.10498,-0.10326,-0.10722,-0.11207,-0.12519,-0.12865,-0.12426,-0.13118,-0.13098,-0.1338,-0.13259,-0.13232,-0.13903,-0.14316,-0.13731,-0.12223,-0.062287,-0.020149,-0.022383,-0.097024,-0.14917,-0.16514,-0.032644,0.98306,-0.38632,-0.20678,-0.12035,-0.093697,-0.079524,-0.054327,-0.027336,-0.00017018,0.050565,0.12334,0.20842,0.23358,0.12858,0.0032027,-0.056838,-0.069381,-0.068781,-0.068889,-0.067759,-0.070679,-0.069999,-0.082374,-0.086102,-0.081543,-0.085894,-0.086711,-0.084591,-0.084099,-0.088735,-0.089348,-0.083847,-0.083792,-0.082522,-0.05135,0.015874,0.042332,-0.020751,-0.10062,-0.12155,-0.10408,0.72045,0.28004,-0.32849,-0.096275,-0.068739,-0.051991,-0.036125,-0.007198,0.022282,0.057599,0.12421,0.20862,0.27629,0.22278,0.091656,0.0021911,-0.020186,-0.019771,-0.021278,-0.016543,-0.021883,-0.019651,-0.025259,-0.027525,-0.027616,-0.028206,-0.029452,-0.027182,-0.029512,-0.029109,-0.028005,-0.027877,-0.030662,-0.027984,-0.027998,-0.030166,-0.028443,0.016261,0.079623,0.10223,0.029431,-0.039131,-0.056511,-0.023066,0.95275,0.05975,-0.19972,-0.031875,-0.008841,0.0043842,0.026476,0.051673,0.082549,0.11699,0.18953,0.27499,0.32741,0.26282,0.12396,0.046967,0.026222,0.015171,0.015477,0.023614,0.025847,0.018418,0.01282,0.015755,0.013537,0.0022856,0.0041622,0.010055,0.0078156,0.0084527,0.0045769,0.011527,0.007696,0.0012483,0.0096196,0.024357,0.09356,0.13464,0.07396,-0.0071431,-0.038058,-0.035128,0.63886,0.46559,-0.29973,-0.036571,-0.011586,0.005185,0.007338,0.024461,0.049632,0.086204,0.12847,0.20352,0.2698,0.239,0.1077,0.0043231,-0.024439,-0.031961,-0.035175,-0.03817,-0.046887,-0.035881,-0.057342,-0.058699,-0.06554,-0.071618,-0.074767,-0.079456,-0.077756,-0.07973,-0.07987,-0.0835,-0.040008,0.017589,0.041974,-0.035076,-0.10384,-0.11687,-0.10983,0.82664,0.065842,-0.29924,-0.099776,-0.064109,-0.054729,-0.035491,-0.010041,0.014976,0.065281,0.11704,0.19394,0.24957,0.18538,0.053426,-0.032522,-0.049659,-0.045975,-0.047099,-0.047484,-0.052916,-0.049574,-0.058512,-0.064041,-0.06969,-0.067586,-0.067658,-0.081873,-0.073214,-0.032124,0.020902,0.057117,-0.018421,-0.096225,-0.12171,-0.116,0.6648,0.32495,-0.35343,-0.10461,-0.073754,-0.053473,-0.040351,-0.018451,0.004332,0.044166,0.11739,0.19731,0.25666,0.19065,0.050646,-0.041136,-0.067352,-0.069002,-0.069773,-0.065118,-0.065827,-0.072644,-0.074524,-0.084016,-0.09101,-0.087371,-0.091802,-0.090841,-0.099894,-0.094765,-0.09133,-0.09716,-0.10084,-0.097309,-0.093223,-0.096962,-0.092208,-0.089921,-0.067178,-0.0014288,0.040219,-0.03203,-0.10049,-0.1249,-0.12553,0.6789,0.32031,-0.35371,-0.12773,-0.090953,-0.074399,-0.064316,-0.052247,-0.021811,0.021058,0.072893,0.15425,0.2227,0.18574,0.051715,-0.049013,-0.07676,-0.081875,-0.086238,-0.089977,-0.090165,-0.093351,-0.10278,-0.11007,-0.11427,-0.11967,-0.12528,-0.12606,-0.13021,-0.13094,-0.13395,-0.13637,-0.13321,-0.13111,-0.13191,-0.13036,-0.12731,-0.1232,-0.12149,-0.10592,-0.029677,0.015262,-0.036058,-0.11304,-0.14682,-0.14841,0.30946,0.7063,-0.44674,-0.14731,-0.11257,-0.096185,-0.080358,-0.057184,-0.029912,0.0020311,0.053622,0.13767,0.21364,0.20406,0.079485,-0.026048,-0.069579,-0.081091,-0.080929,-0.080648,-0.080323,-0.090742,-0.093893,-0.096433,-0.10117,-0.1053,-0.10325,-0.10233,-0.10695,-0.10642,-0.10883,-0.10541,-0.11385,-0.11295,-0.11364,-0.11559,-0.11769,-0.11978,-0.11446,-0.056371,0.0036563,-0.001538,-0.076591,-0.13621,-0.14849,-0.077096,0.97872,-0.24397,-0.23593,-0.12687,-0.097725,-0.088733,-0.068359,-0.04583,-0.01168,0.025918,0.098106,0.18084,0.22974,0.14347,0.01572,-0.065195,-0.079628,-0.085668,-0.08796,-0.085067,-0.087183,-0.090772,-0.091209,-0.1045,-0.10237,-0.10709,-0.10117,-0.10951,-0.11069,-0.10639,-0.10866,-0.11487,-0.1088,-0.11279,-0.11138,-0.11073,-0.098572,-0.028152,0.018263,-0.032241,-0.10924,-0.14301,-0.14658,0.25686,0.70137,-0.44203,-0.1375,-0.10235,-0.086016,-0.073753,-0.049518,-0.028245,0.00083864,0.053741,0.12344,0.1904,0.19094,0.074019,-0.0359,-0.076935,-0.085423,-0.081652,-0.079129,-0.088238,-0.089353,-0.093479,-0.10042,-0.10653,-0.11317,-0.10936,-0.11381,-0.11325,-0.11322,-0.11653,-0.1106,-0.11708,-0.11705,-0.083431,-0.01932,0.014847,-0.042964,-0.11503,-0.14015,-0.14687,0.47586,0.48802,-0.40595,-0.12818,-0.088143,-0.079862,-0.058611,-0.031456,-0.0097049,0.03194,0.085744,0.1718,0.24196,0.21263,0.073104,-0.029211,-0.061144,-0.062518,-0.061623,-0.05353,-0.051088,-0.059978,-0.063162,-0.064385,-0.071123,-0.071381,-0.068914,-0.072543,-0.069115,-0.068545,-0.067409,-0.068384,-0.064214,-0.057399,-0.054629,-0.049939,0.022629,0.077791,0.044462,-0.024626,-0.075741,-0.077779,0.12553,1.0672,-0.3725,-0.099154,-0.030051,-0.018128,0.0025871,0.026548,0.050806,0.081033,0.13262,0.21254,0.29711,0.31026,0.19959,0.07309,0.019988,0.0064571,0.0059703,0.0092593,0.012194,0.0017909,-0.0026646,-0.0051527,-0.010361,-0.013928,-0.016804,-0.012586,-0.01766,-0.017565,-0.018793,-0.013088,-0.014263,-0.015978,-0.010951,-0.009133,-0.0087383,-0.011559,-0.0060947,-0.0012385,0.074024,0.12212,0.095465,0.016319,-0.027794,-0.038522,0.14214,1.1097,-0.31694,-0.064776,-0.0081442,0.015558,0.032241,0.04531,0.071616,0.10331,0.14308,0.2216,0.29917,0.33115,0.223,0.09713,0.032175,0.025391,0.021107,0.018385,0.024789,0.024733,0.013054,0.010088,0.0086327,0.0066355,0.00084056,0.0031033,0.0035439,0.0040684,-0.0043747,-0.0058115,-0.00080851,-0.0032578,-0.0059347,-0.0066465,-0.004134,0.048288,0.11058,0.11067,0.029836,-0.025834,-0.035517,0.0094075,1.0104,-0.06973,-0.15778,-0.022676,-0.0022564,0.020057,0.036211,0.048116,0.082362,0.12498,0.18428,0.26598,0.31471,0.23718,0.10004,0.017834,-0.0076665,-0.009587,-0.0094574,-0.0098531,-0.011383,-0.025105,-0.020862,-0.034632,-0.0376,-0.037095,-0.04156,-0.045503,-0.051502,-0.052021,-0.05369,-0.058331,-0.059967,-0.052915,0.019967,0.066818,0.030302,-0.051673,-0.098493,-0.10708,0.12634,0.92911,-0.40601,-0.12761,-0.072787,-0.058216,-0.037958,-0.02404,0.0014914,0.038986,0.083751,0.15101,0.22818,0.24369,0.13163,0.010439,-0.034738,-0.047085,-0.049672,-0.052804,-0.05033,-0.055809,-0.065894,-0.071807,-0.076772,-0.082906,-0.079253,-0.087122,-0.088796,-0.090316,-0.090795,-0.093325,-0.094409,-0.056182,0.0034185,0.034811,-0.02685,-0.10268,-0.12535,-0.12339,0.59369,0.42941,-0.37668,-0.10944,-0.071242,-0.056397,-0.034653,-0.016879,0.010319,0.052222,0.12101,0.20156,0.27027,0.22796,0.088898,-0.0097985,-0.039181,-0.042978,-0.034322,-0.033451,-0.029231,-0.030753,-0.036357,-0.037001,-0.033957,-0.03836,-0.038596,-0.042314,-0.041188,-0.041465,-0.039801,-0.038805,-0.037234,-0.038221,-0.031743,-0.033526,-0.019501,0.055325,0.10943,0.058945,-0.019762,-0.059009,-0.059113,0.30147,0.92885,-0.37328,-0.05811,-0.02039,-0.0017392,0.016947,0.037499,0.06029,0.093861,0.14563,0.23103,0.3086,0.30832,0.18488,0.066227,0.024365,0.014008,0.01404,0.017539,0.019927,0.014312,0.013127,0.0090215,0.0075265,0.0012703,0.0018495,0.0012616,-0.0018128,-0.0052652,-0.0041586,-0.0029024,-0.0044897,-0.0026808,-0.0070184,-0.0029231,-0.0067908,0.00020324,0.062224,0.11554,0.10569,0.024356,-0.031041,-0.043012,0.055227,1.0962,-0.22296,-0.11445,-0.027736,-0.0052435,0.0013023,0.023503,0.045917,0.073998,0.116,0.18793,0.27172,0.31236,0.21161,0.083645,0.019223,0.0023438,-1.1694e-05,0.0031236,0.0037978,-0.00054702,-0.0048313,-0.0054641,-0.012928,-0.015718,-0.024222,-0.023726,-0.027626,-0.027934,-0.03148,-0.029685,-0.03103,-0.03095,-0.030859,-0.029531,-0.035264,-0.035791,0.021627,0.08361,0.078362,-0.00322,-0.059832,-0.076135,-0.027396,0.98976,-0.13755,-0.19487,-0.0764,-0.053972,-0.0431,-0.028303,-0.0053745,0.019384,0.056399,0.12995,0.2139,0.25088,0.17211,0.034508,-0.036102,-0.063156,-0.068335,-0.066435,-0.068815,-0.073861,-0.077118,-0.084476,-0.0917,-0.096476,-0.10442,-0.10334,-0.11206,-0.11128,-0.11603,-0.11861,-0.11633,-0.12479,-0.12868,-0.12397,-0.11013,-0.045287,0.0029814,-0.039597,-0.12833,-0.1636,-0.16795,0.21335,0.69074,-0.47283,-0.17949,-0.13066,-0.12205,-0.11321,-0.092964,-0.067014,-0.029046,0.0074885,0.080284,0.16407,0.1565,0.029704,-0.069846,-0.10531,-0.11617,-0.12193,-0.11732,-0.11366,-0.12043,-0.11869,-0.12919,-0.13279,-0.12794,-0.13713,-0.13521,-0.13252,-0.14053,-0.14048,-0.1333,-0.093586,-0.036241,-0.011441,-0.078742,-0.15218,-0.1715,-0.15963,0.68681,0.13518,-0.37807,-0.14891,-0.11678,-0.10214,-0.090626,-0.061674,-0.038802,0.0051451,0.063095,0.14619,0.2046,0.15319,0.0071578,-0.073382,-0.092067,-0.099476,-0.096571,-0.089062,-0.098807,-0.10079,-0.098948,-0.1105,-0.11122,-0.10864,-0.11307,-0.11436,-0.12262,-0.12202,-0.12132,-0.10711,-0.036515,0.01297,-0.031033,-0.11804,-0.15449,-0.16121,0.11129,0.93152,-0.48078,-0.17083,-0.12094,-0.10062,-0.092624,-0.073362,-0.034554,-0.0097109,0.047716,0.12271,0.21058,0.20843,0.075395,-0.044497,-0.085953,-0.092025,-0.095733,-0.095565,-0.088393,-0.096507,-0.096254,-0.10768,-0.11024,-0.108,-0.11673,-0.11871,-0.11988,-0.11759,-0.12118,-0.12257,-0.11703,-0.11759,-0.11958,-0.11484,-0.11436,-0.09463,-0.022007,0.019623,-0.03331,-0.11014,-0.13828,-0.14706,0.34399,0.68242,-0.43079,-0.13554,-0.10206,-0.083736,-0.068806,-0.043103,-0.019058,0.014507,0.070886,0.1525,0.23564,0.22118,0.096224,-0.020293,-0.054171,-0.058977,-0.06576,-0.06363,-0.061796,-0.068141,-0.078061,-0.086262,-0.085788,-0.082626,-0.094088,-0.098165,-0.09394,-0.093644,-0.093721,-0.099107,-0.095927,-0.094226,-0.097325,-0.097849,-0.094311,-0.086734,-0.022,0.032953,0.012369,-0.064582,-0.11723,-0.12372,0.0020947,1.0244,-0.35156,-0.17074,-0.098096,-0.07285,-0.063249,-0.042851,-0.018937,0.0090338,0.051187,0.13325,0.22152,0.24789,0.14401,0.019283,-0.046115,-0.060895,-0.065875,-0.064532,-0.061455,-0.070324,-0.07528,-0.074918,-0.084233,-0.082539,-0.086218,-0.092842,-0.092618,-0.092071,-0.094349,-0.096084,-0.096072,-0.097055,-0.096541,-0.09924,-0.087309,-0.024814,0.028107,-0.0049926,-0.08632,-0.12873,-0.14568,0.015863,0.93508,-0.41848,-0.1846,-0.11745,-0.093496,-0.08247,-0.069588,-0.043013,-0.018568,0.021335,0.089671,0.1604,0.187,0.08636,-0.039271,-0.094555,-0.10211,-0.10685,-0.10519,-0.10432,-0.09655,-0.11076,-0.11964,-0.12284,-0.12456,-0.12318,-0.13064,-0.13484,-0.13413,-0.1311,-0.13312,-0.13208,-0.13629,-0.13396,-0.13515,-0.13553,-0.13436,-0.065483,-0.015882,-0.035287,-0.11289,-0.15788,-0.16478,-0.05774,1.0036,-0.36245,-0.21777,-0.12703,-0.097629,-0.083951,-0.063023,-0.037314,-0.0067705,0.035241,0.10959,0.19467,0.2346,0.1392,0.013463,-0.047935,-0.056295,-0.062393,-0.056943,-0.05592,-0.051476,-0.058231,-0.061853,-0.065414,-0.064157,-0.067062,-0.066686,-0.065425,-0.064739,-0.066167,-0.070556,-0.071313,-0.066714,-0.064596,-0.065224,-0.071825,-0.059053,-0.00046227,0.032469,-0.0058767,-0.04641,-0.091655,-0.096593,0.045041,1.0515,-0.34509,-0.14145,-0.071854,-0.048871,-0.033888,-0.018403,-0.001413,0.029398,0.077628,0.15231,0.23683,0.26588,0.15639,0.028064,-0.030488,-0.049076,-0.049248,-0.050863,-0.050719,-0.04868,-0.053227,-0.061591,-0.064774,-0.066068,-0.071056,-0.071899,-0.069744,-0.06744,-0.068104,-0.069065,-0.067032,-0.062859,-0.061942,-0.058862,-0.050951,-0.015674,0.038372,-0.0072552,-0.048678,-0.064435,-0.049199,0.71637,0.33596,-0.27702,-0.038904,-0.011904,-0.00075629,0.019598,0.037305,0.057138,0.096688,0.15455,0.25233,0.31957,0.26578,0.12822,0.029447,-0.0056378,-0.0043496,-0.0084065,0.0038851,-0.00073842,0.00097136,0.0035514,0.00024665,-0.0047332,-0.0072663,-0.0086409,-0.0038058,-0.0064431,-0.0068228,-0.0016376,0.0048922,-0.0013841,-0.0012396,0.010326,0.017775,0.053899,0.10205,0.062526,0.010532,-0.00028859,-0.0013356,0.78409,0.35512,-0.23169,0.0087956,0.042037,0.04953,0.063803,0.082639,0.10015,0.13751,0.18559,0.26171,0.32403,0.28212,0.1398,0.04416,0.019,0.015189,-0.00013349,0.0076831,0.0045496,-0.0025811,-0.010943,-0.012951,-0.018931,-0.022549,-0.029563,-0.033416,-0.034647,-0.036531,-0.037609,-0.039071,-0.044197,-0.040317,-0.015852,0.023697,0.0085055,-0.039307,-0.073959,-0.078795,0.37822,0.7409,-0.37332,-0.079376,-0.037248,-0.019501,-0.0084007,0.0019675,0.020254,0.056884,0.10485,0.18779,0.26224,0.23739,0.10361,-0.0057615,-0.046389,-0.054868,-0.05456,-0.052911,-0.048102,-0.05719,-0.058658,-0.071654,-0.069606,-0.074907,-0.067628,-0.079448,-0.079827,-0.079997,-0.082824,-0.083478,-0.077406,-0.077315,-0.078165,-0.068763,-0.038182,0.0073781,-0.034251,-0.079198,-0.094347,-0.080347,0.76189,0.27157,-0.30105,-0.072795,-0.04406,-0.032113,-0.018594,-4.7371e-05,0.024893,0.060127,0.12962,0.21513,0.27197,0.21901,0.07583,-0.013531,-0.044073,-0.050828,-0.052244,-0.045927,-0.044936,-0.048848,-0.049314,-0.053501,-0.062121,-0.067744,-0.069084,-0.069379,-0.075784,-0.073649,-0.074597,-0.076283,-0.078676,-0.081826,-0.079887,-0.081824,-0.078422,-0.073508,-0.037781,0.0018798,-0.037798,-0.080079,-0.1002,-0.085288,0.70593,0.3108,-0.30908,-0.080664,-0.052057,-0.038681,-0.020809,-0.00054928,0.018861,0.051084,0.11282,0.19762,0.26106,0.21341,0.078909,-0.013461,-0.04722,-0.053852,-0.052756,-0.047357,-0.049745,-0.054782,-0.055629,-0.060218,-0.064746,-0.071735,-0.071015,-0.068862,-0.072181,-0.075287,-0.071105,-0.068326,-0.066474,-0.065646,-0.06201,-0.057789,-0.057904,-0.058231,-0.042359,0.0084122,0.022671,-0.017763,-0.058737,-0.064859,0.017027,1.051,-0.18187,-0.13656,-0.029841,-0.0093034,0.0031255,0.019289,0.039888,0.064267,0.10504,0.17988,0.26443,0.30725,0.2204,0.093333,0.021157,0.0050458,0.0046294,0.0091844,0.0081475,0.0019123,0.00064118,0.0045922,-0.0013411,-0.0098842,-0.0068851,-0.0031074,-0.0063924,-0.0086641,-0.0099792,-0.0092083,-0.0082428,-0.010616,-0.0092385,-0.0085101,-0.013114,-0.010576,0.0035138,0.031042,0.071219,0.034849,-0.011019,-0.037204,-0.011824,0.86932,0.18289,-0.21923,-0.017892,0.011509,0.026205,0.037567,0.05451,0.076949,0.1094,0.17172,0.24892,0.31409,0.25598,0.11704,0.027583,7.9572e-06,-0.010117,-0.0093719,-0.0071727,-0.015907,-0.024438,-0.025299,-0.031924,-0.039893,-0.042479,-0.047119,-0.055668,-0.055654,-0.059511,-0.068299,-0.069686,-0.078017,-0.077378,-0.076106,-0.079843,-0.059113,-0.0046556,-0.017459,-0.073198,-0.10321,-0.1101,0.25349,0.79032,-0.42327,-0.11018,-0.06695,-0.046905,-0.043289,-0.031197,-0.0024571,0.028216,0.064095,0.13226,0.2099,0.20606,0.089912,-0.025703,-0.060357,-0.077039,-0.074364,-0.074639,-0.074717,-0.078137,-0.082343,-0.087349,-0.086876,-0.086587,-0.097769,-0.092994,-0.095291,-0.096222,-0.099753,-0.089837,-0.099847,-0.095648,-0.088396,-0.065461,-0.007039,-0.031367,-0.079729,-0.10669,-0.10122,0.52149,0.54591,-0.36971,-0.087285,-0.05617,-0.036001,-0.017365,-0.0047565,0.020198,0.05424,0.11459,0.1948,0.25917,0.23418,0.094958,-0.00023242,-0.035602,-0.042806,-0.038005,-0.028379,-0.033877,-0.036403,-0.039403,-0.040501,-0.045622,-0.046901,-0.04891,-0.047841,-0.052795,-0.050056,-0.048406,-0.046938,-0.046943,-0.046947,-0.046803,-0.042721,-0.041623,-0.02486,0.024645,0.022365,-0.017263,-0.058274,-0.05991,0.1548,1.0667,-0.35575,-0.07647,-0.02323,0.00087548,0.008973,0.023823,0.043405,0.072686,0.11903,0.19427,0.27637,0.29716,0.18253,0.058462,0.0065547,-0.0065106,-0.010277,-0.011842,-0.0091441,-0.0061495,-0.019642,-0.023071,-0.026001,-0.02476,-0.028456,-0.026487,-0.025713,-0.029536,-0.025124,-0.027353,-0.024623,-0.024449,-0.027381,-0.026118,-0.027432,-0.02445,-0.027156,-0.018666,0.0074959,0.055514,0.028078,-0.015371,-0.045099,-0.040534,0.35761,0.86046,-0.34768,-0.040727,-0.0066485,0.0089465,0.020868,0.031831,0.047911,0.08007,0.12947,0.2054,0.28239,0.27369,0.15471,0.041188,-0.0031805,-0.015389,-0.014435,-0.017224,-0.015509,-0.023743,-0.026648,-0.031846,-0.041374,-0.045616,-0.041204,-0.044788,-0.04379,-0.051903,-0.048815,-0.048902,-0.050025,-0.057532,-0.053701,-0.045164,-0.054948,-0.044689,-0.008226,0.035632,-0.0098346,-0.055188,-0.066032,-0.054074,0.79327,0.18231,-0.27291,-0.052766,-0.029032,-0.016344,-0.0054683,0.0056174,0.031486,0.067893,0.11953,0.2026,0.25975,0.21054,0.073232,-0.006752,-0.038283,-0.045157,-0.043827,-0.041936,-0.041436,-0.050853,-0.055455,-0.056409,-0.061351,-0.070259,-0.068132,-0.074242,-0.075444,-0.081696,-0.08069,-0.076286,-0.081692,-0.082363,-0.081536,-0.078663,-0.063588,-0.00027416,-0.030729,-0.082672,-0.11093,-0.10696,0.495,0.4953,-0.38093,-0.098914,-0.063064,-0.053937,-0.039878,-0.027485,-0.0059121,0.025719,0.073406,0.1462,0.2083,0.1885,0.060529,-0.044366,-0.072418,-0.081798,-0.08093,-0.084617,-0.078301,-0.081175,-0.091279,-0.096765,-0.098435,-0.10159,-0.099014,-0.10513,-0.098233,-0.10171,-0.10078,-0.10429,-0.10703,-0.10497,-0.10459,-0.10068,-0.090177,-0.048359,-0.022164,-0.069542,-0.11431,-0.11408,-0.036662,1.0183,-0.22399,-0.20007,-0.074858,-0.055757,-0.046967,-0.025184,-0.0084278,0.015951,0.060572,0.13045,0.20811,0.25342,0.16836,0.036487,-0.032669,-0.051086,-0.051778,-0.045763,-0.044593,-0.045289,-0.048857,-0.046695,-0.052867,-0.054451,-0.059859,-0.054998,-0.055723,-0.056444,-0.05667,-0.054346,-0.054233,-0.054455,-0.055082,-0.051631,-0.047495,-0.04082,-0.015079,0.040131,0.013464,-0.03618,-0.059075,-0.051446,0.38489,0.79422,-0.35043,-0.037204,-0.0011466,0.012236,0.024337,0.041393,0.071025,0.096955,0.15124,0.23264,0.31388,0.30493,0.18172,0.075854,0.041666,0.03324,0.039219,0.043368,0.043252,0.037479,0.033953,0.030984,0.027985,0.024953,0.019457,0.021113,0.023536,0.020527,0.019533,0.024989,0.027764,0.027429,0.028962,0.028606,0.03469,0.043928,0.083693,0.11913,0.080447,0.034694,0.020932,0.055195,1.007,0.12551,-0.13282,0.039383,0.061119,0.070817,0.083196,0.098027,0.1213,0.1586,0.21604,0.29303,0.35305,0.28508,0.15036,0.060228,0.042419,0.034545,0.028375,0.030288,0.033164,0.022754,0.016942,0.011627,0.0064244,-0.0020285,-0.0043906,-0.0047335,-0.0045665,-0.0084994,-0.0090331,-0.0083274,-0.017198,-0.016278,-0.018597,-0.0068943,0.03897,0.056355,-0.0030774,-0.048423,-0.049282,0.051668,1.0341,-0.27322,-0.12086,-0.030267,-0.01851,-0.0017827,0.015567,0.031276,0.044745,0.092279,0.14709,0.21689,0.24241,0.15613,0.040353,-0.028481,-0.038845,-0.045227,-0.040259,-0.04296,-0.050064,-0.054705,-0.0554,-0.073203,-0.074522,-0.073645,-0.083233,-0.083485,-0.083342,-0.090662,-0.090244,-0.09416,-0.096338,-0.082267,-0.039097,-0.014829,-0.066062,-0.11387,-0.11895,-0.036337,0.99331,-0.27775,-0.20264,-0.098144,-0.073221,-0.055573,-0.04458,-0.029388,-0.0060655,0.039109,0.10403,0.17554,0.20634,0.12127,-0.013682,-0.07674,-0.092381,-0.090044,-0.082292,-0.08681,-0.090515,-0.091207,-0.099419,-0.1035,-0.10457,-0.10787,-0.10822,-0.11227,-0.11078,-0.10928,-0.10746,-0.11093,-0.11169,-0.10147,-0.073733,-0.021181,-0.057018,-0.10077,-0.12261,-0.11229,0.64607,0.36372,-0.35144,-0.096474,-0.061093,-0.051436,-0.03405,-0.015374,0.0057851,0.045819,0.10495,0.18607,0.25224,0.20665,0.078471,-0.020077,-0.049012,-0.051664,-0.047948,-0.042803,-0.040146,-0.045305,-0.045768,-0.044913,-0.04802,-0.051696,-0.049325,-0.050602,-0.053223,-0.047259,-0.053846,-0.047464,-0.045718,-0.043978,-0.043908,-0.039941,-0.0064208,0.03737,0.0025962,-0.043941,-0.058521,-0.045271,0.73446,0.36516,-0.27082,-0.035541,-0.0062903,0.0088085,0.018629,0.035048,0.057336,0.087845,0.14769,0.23121,0.29601,0.24605,0.10936,0.018588,-0.0083389,-0.012469,-0.010379,-0.0068993,-0.0011562,-0.0059424,-0.0097312,-0.016469,-0.016725,-0.019207,-0.019696,-0.020901,-0.019223,-0.023253,-0.02638,-0.021064,-0.019624,-0.017845,-0.017918,-0.013459,-0.0017138,0.040415,0.065602,0.014219,-0.025073,-0.04158,-0.00023143,0.97349,0.023901,-0.17564,-0.020699,0.005931,0.019864,0.029751,0.044208,0.068146,0.10701,0.17328,0.25139,0.30431,0.23122,0.098288,0.014858,-0.0076668,-0.0093812,-0.012836,-0.009066,-0.014479,-0.021346,-0.025665,-0.032401,-0.036687,-0.039747,-0.043983,-0.051451,-0.051239,-0.051517,-0.052626,-0.058674,-0.057868,-0.057981,-0.06027,-0.063218,-0.058248,-0.032521,0.022343,-0.017464,-0.069867,-0.092628,-0.091058,0.501,0.53809,-0.36114,-0.0888,-0.063967,-0.050126,-0.040567,-0.027148,-0.0063132,0.02535,0.080552,0.15692,0.22429,0.19523,0.065968,-0.035686,-0.06791,-0.07597,-0.074078,-0.072807,-0.074137,-0.079678,-0.082562,-0.089193,-0.091948,-0.095087,-0.091832,-0.09624,-0.096591,-0.096679,-0.092415,-0.098004,-0.099116,-0.10044,-0.095452,-0.096065,-0.094953,-0.089838,-0.060139,0.00076184,-0.036656,-0.087044,-0.10816,-0.10087,0.43001,0.60777,-0.3754,-0.09675,-0.064139,-0.052812,-0.036968,-0.022062,-0.0075115,0.026956,0.078848,0.15446,0.22404,0.20634,0.082449,-0.030161,-0.070911,-0.070383,-0.072235,-0.07541,-0.080791,-0.077629,-0.086676,-0.087221,-0.095014,-0.097153,-0.099169,-0.10022,-0.10457,-0.10495,-0.10196,-0.10706,-0.10744,-0.10327,-0.10766,-0.1065,-0.10268,-0.091365,-0.053446,-0.02392,-0.068363,-0.11659,-0.12766,-0.094406,0.88568,-0.11755,-0.27084,-0.11004,-0.07909,-0.07347,-0.053383,-0.039159,-0.011849,0.017032,0.079652,0.15296,0.206,0.13749,0.01447,-0.063716,-0.082413,-0.091649,-0.083104,-0.079709,-0.093218,-0.094298,-0.093952,-0.10847,-0.10876,-0.112,-0.11271,-0.11403,-0.1182,-0.12255,-0.12075,-0.12045,-0.12686,-0.12674,-0.12778,-0.10361,-0.049104,-0.068774,-0.12034,-0.15798,-0.14949,0.35997,0.56997,-0.44077,-0.14566,-0.11667,-0.093791,-0.083525,-0.072256,-0.047012,-0.018594,0.031695,0.10024,0.1728,0.15293,0.030283,-0.073705,-0.10421,-0.11164,-0.11222,-0.10913,-0.10016,-0.11249,-0.10981,-0.11433,-0.11976,-0.11972,-0.11718,-0.12302,-0.11676,-0.11065,-0.1175,-0.11737,-0.11741,-0.10918,-0.1087,-0.10193,-0.060192,-0.022045,-0.06352,-0.11108,-0.12299,-0.059747,0.99661,-0.15827,-0.22452,-0.08779,-0.06589,-0.056402,-0.045543,-0.017284,0.0094593,0.042793,0.10856,0.19047,0.2346,0.15004,0.016803,-0.05867,-0.075187,-0.080524,-0.07793,-0.071374,-0.071514,-0.078655,-0.079868,-0.081125,-0.082963,-0.087623,-0.087237,-0.087111,-0.094144,-0.099098,-0.10016,-0.096468,-0.094175,-0.10055,-0.098707,-0.09405,-0.079707,-0.033986,-0.011888,-0.052799,-0.096184,-0.10924,-0.036558,0.99213,-0.17226,-0.19938,-0.082864,-0.057312,-0.044166,-0.033296,-0.013304,0.012767,0.057907,0.12171,0.20129,0.24802,0.16482,0.026467,-0.046092,-0.064821,-0.063512,-0.067009,-0.059167,-0.062232,-0.06646,-0.071915,-0.075917,-0.07363,-0.075733,-0.079577,-0.080557,-0.079319,-0.081933,-0.08652,-0.080098,-0.082093,-0.080873,-0.080837,-0.081729,-0.084371,-0.082841,-0.064215,-0.016497,-0.022721,-0.064259,-0.10419,-0.10899,0.066412,0.9939,-0.3857,-0.14309,-0.080128,-0.065892,-0.059509,-0.038866,-0.020264,0.0069388,0.044976,0.11218,0.1992,0.22067,0.11825,-0.0052886,-0.066456,-0.086656,-0.090109,-0.086696,-0.087676,-0.087115,-0.094694,-0.10165,-0.10069,-0.10533,-0.11044,-0.1094,-0.10895,-0.1122,-0.11642,-0.11401,-0.11686,-0.11614,-0.12091,-0.12261,-0.10696,-0.062168,-0.033238,-0.084255,-0.13318,-0.13891,-0.094036,0.92887,-0.22523,-0.25164,-0.11503,-0.091952,-0.080548,-0.067968,-0.054956,-0.025717,0.0075066,0.069054,0.13678,0.18001,0.1099,-0.015181,-0.092962,-0.10908,-0.11321,-0.11968,-0.10681,-0.12138,-0.12463,-0.13382,-0.13621,-0.13804,-0.14676,-0.15325,-0.14984,-0.15465,-0.15563,-0.15783,-0.15485,-0.15871,-0.15846,-0.13567,-0.098624,-0.081845,-0.12666,-0.16751,-0.17744,-0.026063,0.95738,-0.43174,-0.21804,-0.13981,-0.12393,-0.10881,-0.087089,-0.078617,-0.050409,-0.0077074,0.056807,0.13783,0.16773,0.052783,-0.072072,-0.12972,-0.13893,-0.13673,-0.13969,-0.12855,-0.13335,-0.14068,-0.14251,-0.1518,-0.14964,-0.15155,-0.156,-0.15656,-0.14989,-0.15311,-0.15496,-0.15019,-0.1486,-0.14464,-0.11989,-0.068247,-0.084326,-0.13448,-0.16338,-0.15825,0.38022,0.60525,-0.44647,-0.15099,-0.11208,-0.09786,-0.0864,-0.076516,-0.050431,-0.017318,0.035462,0.11284,0.17931,0.14836,0.020077,-0.085615,-0.12417,-0.12553,-0.12492,-0.13221,-0.1262,-0.13344,-0.13491,-0.14257,-0.15004,-0.14753,-0.14904,-0.14973,-0.15377,-0.15018,-0.15083,-0.15486,-0.1491,-0.15007,-0.14588,-0.14768,-0.12263,-0.075491,-0.071283,-0.11927,-0.15759,-0.16015,0.032971,0.95989,-0.44271,-0.17659,-0.11986,-0.10329,-0.088774,-0.070485,-0.053131,-0.027925,0.016215,0.092166,0.16982,0.18907,0.07518,-0.044758,-0.095549,-0.113,-0.11988,-0.11274,-0.11588,-0.12134,-0.12121,-0.13504,-0.13405,-0.13671,-0.13964,-0.14715,-0.14641,-0.14521,-0.14585,-0.14973,-0.14766,-0.1485,-0.14857,-0.15121,-0.15042,-0.14389,-0.09687,-0.069882,-0.11725,-0.15604,-0.16955,-0.12595,0.85062,-0.15925,-0.31083,-0.14638,-0.11844,-0.11208,-0.10469,-0.080712,-0.060806,-0.028895,0.03317,0.10429,0.15442,0.097739,-0.030276,-0.10836,-0.1286,-0.13171,-0.13154,-0.12883,-0.13851,-0.13557,-0.13888,-0.14721,-0.15261,-0.15137,-0.15042,-0.14854,-0.14819,-0.14736,-0.14245,-0.14122,-0.14211,-0.13929,-0.14316,-0.12813,-0.10385,-0.057758,-0.086321,-0.13536,-0.1477,-0.14355,0.70045,0.18025,-0.36612,-0.13557,-0.10206,-0.086597,-0.078177,-0.062602,-0.03461,-0.0021853,0.054793,0.12702,0.18699,0.14216,0.0092222,-0.072078,-0.099965,-0.10376,-0.10426,-0.099526,-0.10168,-0.10341,-0.11013,-0.11754,-0.12086,-0.12151,-0.12549,-0.13308,-0.13165,-0.12649,-0.12191,-0.12409,-0.12131,-0.12012,-0.12054,-0.12097,-0.11181,-0.066624,-0.03922,-0.085215,-0.13512,-0.14309,-0.083423,0.93119,-0.16213,-0.25387,-0.12248,-0.10075,-0.091439,-0.078063,-0.06089,-0.040158,-0.0030544,0.062463,0.14244,0.18791,0.11112,-0.017265,-0.099868,-0.11745,-0.11838,-0.12321,-0.11486,-0.11757,-0.12468,-0.12508,-0.13511,-0.14049,-0.14059,-0.14107,-0.13958,-0.14553,-0.1414,-0.14252,-0.14067,-0.14239,-0.14197,-0.13782,-0.1368,-0.13489,-0.10871,-0.062589,-0.068699,-0.11277,-0.14637,-0.14586,0.094457,0.93093,-0.4409,-0.15211,-0.10423,-0.084277,-0.06778,-0.052547,-0.040162,-0.010563,0.032705,0.10502,0.17889,0.19686,0.091692,-0.017472,-0.077454,-0.085256,-0.090959,-0.088927,-0.089368,-0.092481,-0.094009,-0.096463,-0.10931,-0.1133,-0.11081,-0.11643,-0.11787,-0.11751,-0.12189,-0.12277,-0.12523,-0.12733,-0.13044,-0.12266,-0.131,-0.13114,-0.12173,-0.098833,-0.052854,-0.070214,-0.12176,-0.14988,-0.14856,0.36327,0.54629,-0.43201,-0.14389,-0.11429,-0.10235,-0.082675,-0.078443,-0.052151,-0.021412,0.018208,0.087799,0.15215,0.14848,0.033871,-0.06416,-0.10773,-0.11296,-0.11098,-0.11205,-0.12436,-0.11955,-0.1262,-0.13472,-0.13399,-0.13788,-0.13731,-0.14638,-0.15256,-0.15099,-0.14678,-0.14675,-0.15919,-0.1529,-0.15013,-0.14027,-0.10576,-0.069746,-0.11161,-0.16265,-0.17261,-0.11356,0.91823,-0.2781,-0.27462,-0.14253,-0.12192,-0.11007,-0.093792,-0.074717,-0.047022,-0.014145,0.04213,0.1129,0.15852,0.08274,-0.044458,-0.1084,-0.12007,-0.12622,-0.12334,-0.11638,-0.1224,-0.12027,-0.12761,-0.13468,-0.13447,-0.13632,-0.13854,-0.13736,-0.13933,-0.1432,-0.1372,-0.13887,-0.12963,-0.13098,-0.13013,-0.099752,-0.046874,-0.065092,-0.1142,-0.13758,-0.13093,0.43683,0.59822,-0.40375,-0.1175,-0.080078,-0.065347,-0.047271,-0.028067,-0.007965,0.024268,0.079118,0.15503,0.22743,0.20535,0.07997,-0.014387,-0.048621,-0.056007,-0.053608,-0.045456,-0.047215,-0.052295,-0.056432,-0.056485,-0.058918,-0.062854,-0.062401,-0.063724,-0.065856,-0.070894,-0.070923,-0.060453,-0.062749,-0.06187,-0.059848,-0.054339,-0.032074,0.011766,0.016282,-0.022046,-0.060059,-0.069176,0.074323,1.0782,-0.29529,-0.10081,-0.026663,-0.0058707,0.0021968,0.01656,0.032672,0.063503,0.1087,0.17495,0.2541,0.28191,0.18648,0.06119,0.0021949,-0.013323,-0.0174,-0.019,-0.018931,-0.02567,-0.02595,-0.033525,-0.043733,-0.046327,-0.048128,-0.049981,-0.053934,-0.055214,-0.05099,-0.057756,-0.059783,-0.054396,-0.051698,-0.058805,-0.048557,-0.00018149,0.026982,-0.021558,-0.068319,-0.074379,-0.037683,0.92876,-0.032108,-0.22325,-0.049052,-0.029656,-0.019467,-0.0073332,0.0049041,0.028671,0.067981,0.11895,0.19291,0.2406,0.18158,0.054641,-0.019271,-0.047471,-0.047174,-0.049257,-0.048321,-0.056032,-0.061919,-0.064765,-0.068601,-0.075361,-0.079941,-0.075809,-0.082804,-0.083667,-0.080427,-0.080507,-0.081195,-0.076724,-0.067767,-0.029515,-0.0084895,-0.048725,-0.096902,-0.094375,-0.025435,1.0184,-0.17933,-0.18893,-0.052932,-0.032625,-0.025401,-0.0064043,0.010733,0.028982,0.067167,0.13486,0.20637,0.24555,0.16415,0.04133,-0.027888,-0.041104,-0.043569,-0.042994,-0.038554,-0.046006,-0.04803,-0.046785,-0.051705,-0.054003,-0.06227,-0.059485,-0.064869,-0.065082,-0.069382,-0.068989,-0.068386,-0.070484,-0.069102,-0.057382,-0.022759,0.012989,-0.02334,-0.069393,-0.084206,-0.064795,0.75116,0.26193,-0.28869,-0.06611,-0.038207,-0.025556,-0.011145,0.0034549,0.024063,0.055633,0.11784,0.19559,0.25469,0.20401,0.072864,-0.016899,-0.03913,-0.041054,-0.043005,-0.04246,-0.044357,-0.047294,-0.052363,-0.053494,-0.0534,-0.054989,-0.056942,-0.057175,-0.053043,-0.048739,-0.045331,-0.045328,-0.041365,-0.037838,-0.034356,-0.031769,-0.010681,0.036641,0.022608,-0.023264,-0.056225,-0.054599,0.12876,1.0539,-0.33682,-0.079123,-0.023087,-0.0019242,0.0063642,0.017284,0.035208,0.063807,0.10058,0.17248,0.24676,0.2741,0.16259,0.043764,-0.014851,-0.025853,-0.029154,-0.026237,-0.02745,-0.035237,-0.040606,-0.036771,-0.049238,-0.051828,-0.051956,-0.055221,-0.050719,-0.063686,-0.058251,-0.060473,-0.064519,-0.0559,-0.06039,-0.061986,-0.048269,-0.017672,0.022365,-0.014595,-0.062514,-0.083299,-0.07371,0.66828,0.32004,-0.31538,-0.07274,-0.041941,-0.02295,-0.015718,-0.0051674,0.018861,0.053571,0.093711,0.15898,0.21568,0.19241,0.071797,-0.014503,-0.039725,-0.041339,-0.049296,-0.047865,-0.043385,-0.052694,-0.06245,-0.066719,-0.062289,-0.069687,-0.072321,-0.072153,-0.068177,-0.073722,-0.077246,-0.075692,-0.073304,-0.075274,-0.072604,-0.070264,-0.046549,0.0065055,-0.013183,-0.06064,-0.085198,-0.084915,0.24062,0.91111,-0.3987,-0.083957,-0.044227,-0.029406,-0.017636,0.0035789,0.021504,0.048362,0.092926,0.15785,0.23021,0.22951,0.11786,0.010718,-0.037723,-0.045188,-0.04654,-0.044298,-0.045988,-0.053147,-0.053565,-0.062017,-0.06698,-0.067134,-0.074713,-0.073282,-0.0786,-0.082249,-0.076259,-0.076423,-0.077826,-0.078884,-0.078188,-0.072572,-0.068399,-0.054039,-0.010437,-0.016317,-0.055201,-0.095796,-0.099395,0.088268,1.0164,-0.38379,-0.12449,-0.065934,-0.04656,-0.038692,-0.020742,-0.00367,0.022324,0.058638,0.13045,0.20606,0.22808,0.12711,0.01064,-0.040059,-0.051535,-0.054546,-0.05058,-0.050474,-0.050803,-0.052008,-0.05527,-0.05772,-0.064085,-0.064028,-0.063678,-0.060832,-0.057539,-0.05286,-0.048015,-0.049355,-0.046937,-0.0446,-0.047888,-0.044888,-0.031034,0.022279,0.024277,-0.013615,-0.053707,-0.060439,0.031699,1.051,-0.23177,-0.12841,-0.035831,-0.0058888,-0.0039633,0.011532,0.028065,0.053592,0.094098,0.15306,0.23266,0.27078,0.18283,0.056226,-0.0046776,-0.023147,-0.028898,-0.029403,-0.035461,-0.040164,-0.040682,-0.048832,-0.062271,-0.057828,-0.058941,-0.06459,-0.064082,-0.065831,-0.07027,-0.075684,-0.070687,-0.07519,-0.077267,-0.063253,-0.022612,-0.0073328,-0.047124,-0.094221,-0.10093,-0.030124,0.97599,-0.2343,-0.18852,-0.071974,-0.047937,-0.036367,-0.021974,-0.0060439,0.015641,0.054105,0.11111,0.17827,0.21623,0.14115,0.025951,-0.034156,-0.044113,-0.047733,-0.044766,-0.04767,-0.050861,-0.055513,-0.054314,-0.059438,-0.060793,-0.061505,-0.060496,-0.061217,-0.064085,-0.066719,-0.069976,-0.067599,-0.060868,-0.064309,-0.060874,-0.0509,-0.0232,0.028163,-0.014535,-0.06411,-0.079078,-0.06243,0.79055,0.23878,-0.27728,-0.058701,-0.030872,-0.014881,-0.00049763,0.0087859,0.032297,0.065392,0.1207,0.19032,0.25497,0.21093,0.075333,-0.01142,-0.031688,-0.033153,-0.038688,-0.036919,-0.034145,-0.037408,-0.045417,-0.048501,-0.050259,-0.045648,-0.047117,-0.051684,-0.052954,-0.048152,-0.052759,-0.056373,-0.054475,-0.052389,-0.055144,-0.042298,-0.010812,0.03923,0.0025829,-0.045719,-0.064694,-0.051367,0.66618,0.40766,-0.29478,-0.043916,-0.013989,-0.0062604,0.009189,0.026637,0.05093,0.081663,0.13237,0.21518,0.27712,0.23769,0.11014,0.017365,-0.012075,-0.019413,-0.020997,-0.021196,-0.022122,-0.027278,-0.028788,-0.027232,-0.038064,-0.040875,-0.040679,-0.034035,-0.044341,-0.043376,-0.041258,-0.037798,-0.041436,-0.04537,-0.033792,-0.031325,-0.010323,0.047932,0.029677,-0.020987,-0.053342,-0.05647,0.23312,0.90364,-0.36793,-0.059602,-0.010906,0.011614,0.018517,0.028609,0.051735,0.082038,0.12412,0.18254,0.25027,0.26608,0.16512,0.053839,0.010216,0.0085742,0.004549,0.00084992,0.00060789,0.0076376,-0.0083072,-0.013476,-0.015676,-0.01637,-0.015201,-0.017398,-0.023273,-0.018697,-0.015518,-0.019711,-0.018957,-0.019574,-0.015806,0.0024648,0.059534,0.041608,-0.01265,-0.035964,-0.036374,0.37825,0.8065,-0.344,-0.034447,0.0064539,0.027541,0.031262,0.046851,0.065969,0.092854,0.13586,0.20757,0.27199,0.26915,0.15125,0.046887,0.012357,0.012075,0.0030819,0.010523,0.013379,0.0041702,-0.0025084,-0.0034611,-0.0083257,-0.0096299,-0.012392,-0.01325,-0.0093425,-0.012441,-0.016188,-0.014976,-0.015809,-0.012561,-0.008887,-0.010846,-0.0015227,0.036496,0.065086,0.027499,-0.0093816,-0.029106,-0.0046484,0.89823,0.2065,-0.19962,-0.0046566,0.02414,0.029557,0.041129,0.055379,0.083234,0.11027,0.16909,0.24327,0.2974,0.24007,0.11207,0.026414,0.0047642,-0.0022735,0.0017356,0.00026865,-0.0054319,-0.0045498,-0.01257,-0.019288,-0.026141,-0.027727,-0.027454,-0.027028,-0.027169,-0.025867,-0.025874,-0.024747,-0.027915,-0.026042,-0.024603,-0.017658,0.0032877,0.048397,0.038886,-0.0073076,-0.042382,-0.044443,0.17501,1.0529,-0.34211,-0.060759,-0.01005,0.0074551,0.019571,0.036117,0.057151,0.078475,0.12285,0.19433,0.27041,0.28408,0.16754,0.052366,0.0052077,-0.0060392,-0.011314,-0.0080216,-0.0059432,-0.0099733,-0.018987,-0.02129,-0.0239,-0.031215,-0.032195,-0.035684,-0.034927,-0.036059,-0.035101,-0.038452,-0.034564,-0.035205,-0.038955,-0.038481,-0.033695,-0.031528,-0.0084973,0.048624,0.01992,-0.026088,-0.054524,-0.053261,0.40343,0.75309,-0.35016,-0.054918,-0.014989,-0.0061961,0.0049182,0.014877,0.036608,0.065401,0.11141,0.18409,0.25061,0.24133,0.12013,0.017155,-0.029232,-0.038408,-0.045296,-0.036469,-0.042176,-0.04887,-0.053801,-0.058473,-0.058892,-0.071026,-0.072337,-0.066834,-0.073238,-0.073249,-0.079947,-0.074951,-0.077384,-0.075,-0.080339,-0.072011,-0.070245,-0.069341,-0.053477,-0.0014796,-0.021829,-0.080035,-0.10302,-0.09903,0.3468,0.66257,-0.39659,-0.096759,-0.065515,-0.051853,-0.036996,-0.023706,0.0043867,0.025912,0.064687,0.13968,0.20269,0.19741,0.087016,-0.017148,-0.045838,-0.057662,-0.063211,-0.056458,-0.053615,-0.062722,-0.071929,-0.064283,-0.072205,-0.078699,-0.081889,-0.073784,-0.079254,-0.085158,-0.082849,-0.078392,-0.083253,-0.080417,-0.081056,-0.055711,-0.0036202,-0.015327,-0.064682,-0.097232,-0.096484,0.15103,0.96097,-0.40144,-0.10536,-0.053163,-0.038459,-0.025606,-0.0084312,0.0098265,0.036131,0.085511,0.1544,0.22722,0.23143,0.12136,0.0017415,-0.039799,-0.052519,-0.048848,-0.035985,-0.03464,-0.048392,-0.046489,-0.046781,-0.047697,-0.051078,-0.055696,-0.046069,-0.042734,-0.047513,-0.046618,-0.041667,-0.039782,-0.039162,-0.042653,-0.038326,-0.030561,-0.01336,0.023034,0.045267,0.0081426,-0.030663,-0.037083,0.058681,1.1129,-0.18869,-0.10406,0.0022019,0.020078,0.034964,0.046424,0.072512,0.096181,0.13915,0.20387,0.28985,0.32885,0.24196,0.11229,0.049736,0.032976,0.031572,0.030077,0.039078,0.03422,0.032114,0.028757,0.025442,0.019353,0.014742,0.014186,0.011186,0.0098662,0.0077621,0.007473,0.0090234,0.012385,0.011612,0.013231,0.011723,0.010365,0.017066,0.049027,0.094353,0.051228,0.0088212,-0.010213,0.0084467,0.82999,0.31687,-0.21517,-0.00076716,0.027644,0.03007,0.041183,0.052842,0.070947,0.098905,0.15251,0.23848,0.29668,0.24031,0.11231,0.018871,-0.01377,-0.024052,-0.027641,-0.026522,-0.029556,-0.040301,-0.048692,-0.055475,-0.060998,-0.069778,-0.068468,-0.073438,-0.0769,-0.085652,-0.08196,-0.079562,-0.080409,-0.090274,-0.09228,-0.09705,-0.099016,-0.1017,-0.095315,-0.082298,-0.052749,-0.016332,-0.05481,-0.10145,-0.12001,-0.1111,0.64643,0.33435,-0.33242,-0.10025,-0.070806,-0.051208,-0.039976,-0.024414,-0.0031733,0.031256,0.084895,0.16172,0.22644,0.19353,0.070933,-0.022519,-0.057056,-0.060306,-0.058869,-0.057446,-0.063192,-0.065751,-0.072776,-0.076421,-0.080977,-0.085428,-0.093985,-0.083362,-0.078689,-0.0070298,0.055669,0.024385,-0.08215,-0.12062,-0.13058,0.12703,0.89802,-0.43353,-0.13601,-0.090671,-0.067918,-0.059301,-0.039104,-0.017967,0.017288,0.076295,0.14862,0.23332,0.2158,0.087818,-0.026166,-0.071854,-0.071804,-0.072799,-0.065304,-0.05844,-0.06816,-0.059519,-0.015353,0.0364,0.069888,-0.011253,-0.10174,-0.12469,-0.12521,0.46758,0.50605,-0.38715,-0.1103,-0.074458,-0.065099,-0.041274,-0.024484,0.00032358,0.032444,0.099213,0.17634,0.24332,0.1535,0.011519,-0.064191,-0.08809,-0.095181,-0.082625,-0.087979,-0.078298,-0.088045,-0.098204,-0.098665,-0.10243,-0.099658,-0.1112,-0.10678,-0.10393,-0.097907,-0.034337,0.018109,0.026068,-0.077104,-0.13171,-0.1467,-0.10644,0.87717,-0.035971,-0.29614,-0.10391,-0.077549,-0.060969,-0.04673,-0.027436,-0.00061595,0.048129,0.098307,0.19107,0.23829,0.16471,0.035527,-0.034348,-0.053654,-0.056712,-0.056993,-0.049175,-0.05739,-0.059891,-0.061074,-0.070611,-0.075305,-0.080246,-0.084794,-0.08702,-0.094494,-0.1034,-0.10689,-0.11004,-0.12069,-0.12175,-0.12374,-0.12911,-0.13211,-0.13549,-0.13392,-0.13857,-0.13372,-0.077678,-0.032812,-0.040824,-0.11363,-0.1743,-0.19698,-0.083279,1.0123,-0.40992,-0.25904,-0.1791,-0.15627,-0.14638,-0.13149,-0.10947,-0.080025,-0.041032,0.014432,0.088366,0.13037,0.055871,-0.063341,-0.12634,-0.13867,-0.14452,-0.15073,-0.14706,-0.14335,-0.1585,-0.15827,-0.15782,-0.15807,-0.16067,-0.1655,-0.164,-0.16188,-0.16161,-0.1605,-0.15474,-0.15529,-0.15625,-0.15966,-0.15435,-0.15102,-0.15048,-0.13737,-0.05835,-0.01776,-0.059152,-0.13489,-0.1733,-0.17631,0.14545,0.85478,-0.478,-0.17135,-0.13491,-0.1147,-0.10108,-0.081098,-0.056183,-0.029733,0.024556,0.099546,0.1676,0.17551,0.068457,-0.035393,-0.081768,-0.092734,-0.089771,-0.085286,-0.083944,-0.08561,-0.084776,-0.088515,-0.088419,-0.087099,-0.088034,-0.087639,-0.083883,-0.086556,-0.083659,-0.082035,-0.07434,-0.075954,-0.0722,-0.066546,-0.064646,-0.062559,-0.043794,0.027401,0.074351,0.035224,-0.042979,-0.077452,-0.082916,0.20734,0.96257,-0.37591,-0.069104,-0.03234,-0.010702,0.0069361,0.023707,0.043559,0.080086,0.1285,0.19885,0.27297,0.2915,0.18984,0.073618,0.023442,0.017169,0.019058,0.020886,0.015151,0.018359,0.01179,0.012743,0.0028445,0.009286,0.0063366,0.0049419,0.00030629,-0.0024643,-0.00098804,-0.0069804,-0.0035529,-0.0037337,0.0017388,-0.0076094,-0.0083672,0.05603,0.10952,0.092567,0.013193,-0.043542,-0.054582,0.02067,1.0419,-0.23967,-0.13643,-0.03116,-0.010887,0.0010847,0.020863,0.035139,0.060307,0.099053,0.1574,0.222,0.2548,0.17991,0.056862,-0.0096855,-0.020117,-0.026209,-0.027389,-0.028321,-0.032684,-0.039567,-0.041275,-0.049024,-0.059531,-0.053505,-0.053027,-0.061647,-0.069351,-0.066476,-0.059724,-0.063351,-0.016538,0.040372,0.062351,-0.001805,-0.080237,-0.098311,-0.096418,0.70008,0.29859,-0.32963,-0.076767,-0.041786,-0.027239,-0.013754,0.010838,0.031324,0.070937,0.12102,0.18563,0.24651,0.19942,0.0786,-0.011114,-0.033454,-0.042688,-0.042278,-0.03177,-0.040882,-0.045474,-0.045381,-0.04537,-0.05279,-0.05802,-0.052721,-0.049223,-0.056723,-0.055618,-0.058497,-0.048666,-0.049281,0.021237,0.075615,0.055462,-0.020927,-0.064066,-0.081314,0.013183,1.0962,-0.22576,-0.14726,-0.036019,-0.014007,-0.0072848,0.014806,0.043344,0.067076,0.10956,0.1769,0.25979,0.29307,0.19456,0.073088,0.011634,-0.0037862,-0.010001,-0.0041787,-0.0017192,-0.0068837,-0.01226,-0.016955,-0.016285,-0.025518,-0.026189,-0.030143,-0.028934,-0.030216,-0.028231,-0.033907,-0.026547,-0.020162,-0.033118,-0.031674,-0.02739,-0.024883,0.045628,0.092939,0.065686,-0.011582,-0.060254,-0.069225,0.16198,1.0385,-0.37273,-0.085864,-0.040036,-0.031225,-0.016612,0.0035052,0.024837,0.053788,0.098577,0.16637,0.24474,0.25901,0.14988,0.026016,-0.022362,-0.033097,-0.042028,-0.040211,-0.03747,-0.038794,-0.046959,-0.05187,-0.06036,-0.061859,-0.069506,-0.070579,-0.070843,-0.076517,-0.07645,-0.076518,-0.079592,-0.083307,-0.079213,-0.075794,-0.040238,0.019448,0.049211,-0.020336,-0.090291,-0.11575,-0.10907,0.64542,0.33433,-0.33801,-0.10667,-0.074078,-0.053457,-0.045428,-0.030002,0.0012059,0.041293,0.098589,0.1754,0.24022,0.20151,0.074821,-0.021512,-0.043822,-0.042231,-0.043789,-0.047423,-0.045383,-0.046229,-0.048056,-0.054919,-0.061091,-0.057477,-0.056133,-0.062641,-0.062091,-0.059204,-0.059358,-0.059642,-0.053278,-0.05071,-0.047492,-0.035931,0.024826,0.07802,0.069247,-0.015783,-0.061362,-0.067005,0.045129,1.0632,-0.26215,-0.11782,-0.033995,-0.014391,0.0015338,0.016647,0.039901,0.065606,0.11076,0.17777,0.26003,0.28691,0.19487,0.073308,0.014639,-0.00050511,-0.012658,-0.0081539,-0.010991,-0.017562,-0.022337,-0.028813,-0.033192,-0.038743,-0.038967,-0.040202,-0.032658,-0.043871,-0.042639,-0.041918,-0.039487,-0.035476,-0.04265,-0.03846,-0.038022,-0.029197,0.038217,0.090903,0.071431,-0.015671,-0.060714,-0.066876,0.15056,0.97956,-0.36369,-0.082952,-0.026287,-0.010421,-8.6094e-05,0.027535,0.046864,0.074769,0.13307,0.18992,0.26246,0.2806,0.18989,0.063335,0.022928,0.011523,0.0041025,0.014034,0.014612,0.0031327,-0.0025577,-0.0033799,-0.013852,-0.017625,-0.019281,-0.020665,-0.032187,-0.02349,-0.031421,-0.030671,-0.040914,-0.040603,-0.0032075,0.0598,0.092808,0.024031,-0.05402,-0.072757,-0.071819,0.72055,0.29072,-0.3042,-0.062348,-0.040413,-0.032057,-0.015405,0.0045212,0.026918,0.060654,0.113,0.18571,0.24378,0.19734,0.066114,-0.015644,-0.043528,-0.047387,-0.049588,-0.043314,-0.047745,-0.060328,-0.059497,-0.068007,-0.07326,-0.07632,-0.079075,-0.077759,-0.085912,-0.087101,-0.085565,-0.085847,-0.089463,-0.086306,-0.090821,-0.090964,-0.080826,-0.004053,0.037324,-0.0041199,-0.090458,-0.12873,-0.1373,0.19391,0.87283,-0.46057,-0.14396,-0.10782,-0.095126,-0.080881,-0.065422,-0.036574,-0.0093784,0.036113,0.11829,0.19685,0.19317,0.073704,-0.035176,-0.075463,-0.086951,-0.094987,-0.086504,-0.082746,-0.090806,-0.091839,-0.090752,-0.095645,-0.10061,-0.10319,-0.099747,-0.10294,-0.10028,-0.096821,-0.10089,-0.095326,-0.10024,-0.098886,-0.0928,-0.089676,-0.092491,-0.095672,-0.086227,-0.007965,0.035919,0.0017842,-0.075827,-0.11715,-0.1235,0.12219,0.96956,-0.42512,-0.13275,-0.09285,-0.065776,-0.056585,-0.03503,-0.013752,0.016753,0.06574,0.13805,0.21028,0.22667,0.12248,0.0055574,-0.049961,-0.058919,-0.05791,-0.05912,-0.059937,-0.065098,-0.067156,-0.07286,-0.080518,-0.084265,-0.085583,-0.086725,-0.089862,-0.084866,-0.087125,-0.088751,-0.0813,-0.080195,-0.077144,-0.081724,-0.07998,-0.086526,-0.082895,-0.082606,-0.069668,5.6375e-05,0.046862,0.0087893,-0.076734,-0.11214,-0.12709,0.11627,0.93717,-0.43025,-0.13754,-0.089984,-0.071882,-0.05847,-0.04027,-0.024931,0.0022958,0.052975,0.12665,0.19795,0.21734,0.1156,-0.0044898,-0.058606,-0.067507,-0.070709,-0.067399,-0.0631,-0.073129,-0.073368,-0.078643,-0.087779,-0.088118,-0.093068,-0.087271,-0.091606,-0.099357,-0.088084,-0.093579,-0.097454,-0.096422,-0.087692,-0.091087,-0.091723,-0.08246,-0.039166,0.020971,0.038357,-0.033804,-0.10256,-0.11816,-0.09733,0.85396,0.025461,-0.28466,-0.088481,-0.071348,-0.049174,-0.033842,-0.012578,0.0038071,0.042189,0.09511,0.16573,0.22549,0.17581,0.055361,-0.032988,-0.048782,-0.05539,-0.056479,-0.053404,-0.054464,-0.057161,-0.055907,-0.05973,-0.058902,-0.059713,-0.055702,-0.062184,-0.062975,-0.061405,-0.059157,-0.053393,-0.057328,-0.055441,-0.050013,-0.051843,-0.046568,-0.016315,0.053092,0.083181,0.022328,-0.050336,-0.07363,-0.070053,0.66185,0.4451,-0.3034,-0.063975,-0.033408,-0.013681,0.0032487,0.020305,0.044153,0.079078,0.14138,0.21644,0.28553,0.24615,0.12085,0.019326,-0.0091757,-0.013794,-0.012249,-0.012035,-0.010437,-0.012247,-0.020056,-0.019313,-0.028513,-0.030068,-0.033921,-0.037767,-0.038183,-0.033545,-0.037232,-0.040951,-0.040384,-0.038487,-0.034528,-0.033969,-0.035218,-0.02903,-0.023663,0.045271,0.097071,0.076924,-0.0066793,-0.056175,-0.067368,0.083945,1.0826,-0.31056,-0.10553,-0.042873,-0.02234,-0.0068813,0.011769,0.032214,0.067365,0.10507,0.18213,0.2621,0.29409,0.1932,0.074157,0.011567,0.0020354,-0.006881,-0.0033374,-0.0044885,-0.0061452,-0.013765,-0.021726,-0.024512,-0.026878,-0.031307,-0.039865,-0.031547,-0.035956,-0.036752,-0.036436,-0.038054,-0.038517,-0.039555,-0.043199,-0.040905,-0.035594,-0.020203,0.053171,0.091646,0.05518,-0.03178,-0.067508,-0.070987,0.34397,0.74727,-0.36943,-0.073404,-0.033815,-0.019757,-0.0095683,0.0061621,0.032131,0.063924,0.11022,0.17328,0.24661,0.24106,0.12689,0.014027,-0.02499,-0.025079,-0.041815,-0.039128,-0.038299,-0.039297,-0.051494,-0.055134,-0.052568,-0.054567,-0.069456,-0.064411,-0.064141,-0.073082,-0.07647,-0.071576,-0.072137,-0.078987,-0.029207,0.03129,0.049075,-0.030839,-0.092736,-0.10615,-0.083184,0.91334,-0.011985,-0.26279,-0.088364,-0.059278,-0.045637,-0.031441,-0.0077706,0.014495,0.056988,0.11513,0.19346,0.24766,0.17882,0.05576,-0.027481,-0.040137,-0.051094,-0.043844,-0.037606,-0.042709,-0.047629,-0.052872,-0.054376,-0.057851,-0.05844,-0.06235,-0.062662,-0.058472,-0.063741,-0.062265,-0.066557,-0.063297,-0.056787,0.016052,0.063746,0.032171,-0.045751,-0.089198,-0.092103,0.063653,1.0763,-0.3585,-0.12508,-0.06196,-0.035633,-0.023248,-0.005035,0.013941,0.047551,0.099191,0.16984,0.25085,0.27334,0.16581,0.038769,-0.019815,-0.035246,-0.033188,-0.037938,-0.036587,-0.040605,-0.044705,-0.050248,-0.059512,-0.06346,-0.065554,-0.071308,-0.072197,-0.076972,-0.076704,-0.07501,-0.077499,-0.082427,-0.085068,-0.084184,-0.087114,-0.093241,-0.089018,-0.069345,0.00082841,0.042529,-0.019236,-0.088888,-0.12493,-0.12127,0.46437,0.56062,-0.39447,-0.12429,-0.093086,-0.071969,-0.057347,-0.045576,-0.020058,0.018291,0.065954,0.14078,0.21635,0.19786,0.073958,-0.034292,-0.070417,-0.077221,-0.081776,-0.078925,-0.078329,-0.080788,-0.091727,-0.091838,-0.10228,-0.1054,-0.11207,-0.1077,-0.11345,-0.11258,-0.11208,-0.11621,-0.11332,-0.11807,-0.11907,-0.11703,-0.1246,-0.12428,-0.12522,-0.11856,-0.042723,0.0012225,-0.048811,-0.12482,-0.16433,-0.16821,0.16245,0.77523,-0.48447,-0.17822,-0.13462,-0.12618,-0.11548,-0.085389,-0.066532,-0.040463,0.0094654,0.089538,0.16261,0.16026,0.046948,-0.067596,-0.1101,-0.12681,-0.12413,-0.12434,-0.11371,-0.1286,-0.13064,-0.12699,-0.13202,-0.1376,-0.13737,-0.14352,-0.13914,-0.14057,-0.14499,-0.13718,-0.13253,-0.1416,-0.14083,-0.13931,-0.13024,-0.065707,-0.016098,-0.021973,-0.10187,-0.14832,-0.16559,-0.067914,0.96489,-0.32826,-0.22592,-0.11792,-0.089919,-0.076649,-0.059855,-0.030266,-0.0034009,0.038578,0.10145,0.17777,0.22409,0.14006,0.015615,-0.044312,-0.053824,-0.052565,-0.042132,-0.037848,-0.035576,-0.044103,-0.043114,-0.048533,-0.048106,-0.046216,-0.056528,-0.050486,-0.047315,-0.044516,-0.042522,-0.040171,-0.042314,-0.039459,-0.039497,-0.032531,0.0055786,0.06147,0.088228,0.027462,-0.041974,-0.057158,-0.037141,0.86531,0.2546,-0.2346,-0.0287,0.0035763,0.019927,0.035276,0.050827,0.081087,0.1177,0.17719,0.26495,0.33032,0.27969,0.14005,0.054384,0.029259,0.026357,0.023211,0.026051,0.034131,0.029615,0.026819,0.026622,0.02294,0.02519,0.024544,0.019219,0.021678,0.021801,0.022077,0.019101,0.020219,0.020419,0.021259,0.025631,0.024253,0.025474,0.029923,0.031594,0.060288,0.10309,0.096362,0.065124,0.026538,0.0182,0.05539,1.0448,0.11196,-0.1133,0.034962,0.06526,0.077698,0.091674,0.10264,0.12882,0.16985,0.23062,0.3105,0.36502,0.30342,0.17055,0.082891,0.057479,0.054134,0.04565,0.048578,0.047204,0.043621,0.038569,0.031924,0.030287,0.027833,0.021495,0.01663,0.015987,0.014258,0.010706,0.0095434,0.009054,0.010401,0.009764,0.0058744,0.008699,0.0070511,0.018526,0.065156,0.073359,0.032489,-0.0071222,-0.016062,0.030685,1.0273,-0.00035241,-0.13697,-0.0011856,0.021079,0.033261,0.047383,0.05735,0.085344,0.1137,0.17648,0.25157,0.30921,0.22717,0.09941,0.017154,-0.013252,-0.018537,-0.023449,-0.022256,-0.027577,-0.035897,-0.044287,-0.052226,-0.056056,-0.060283,-0.067383,-0.06608,-0.066803,-0.070328,-0.07286,-0.074121,-0.076096,-0.07236,-0.07317,-0.075495,-0.062303,-0.024046,-0.0012511,-0.040781,-0.087987,-0.097437,-0.072195,0.89001,-0.066805,-0.25481,-0.087136,-0.059082,-0.047242,-0.037374,-0.023597,-0.00847,0.030278,0.080914,0.15568,0.20442,0.14561,0.014697,-0.068935,-0.088256,-0.092027,-0.096085,-0.094641,-0.099355,-0.10884,-0.11315,-0.11453,-0.12105,-0.12304,-0.12469,-0.12688,-0.12673,-0.13144,-0.127,-0.13214,-0.13021,-0.12915,-0.10301,-0.053178,-0.033325,-0.076759,-0.14247,-0.15777,-0.15665,0.65017,0.2311,-0.38823,-0.14593,-0.11205,-0.097337,-0.086613,-0.072731,-0.043334,-0.011385,0.051812,0.11499,0.19271,0.14091,0.015484,-0.082616,-0.10865,-0.1142,-0.113,-0.10524,-0.10332,-0.11366,-0.11589,-0.11895,-0.12097,-0.13092,-0.12412,-0.12376,-0.13295,-0.12754,-0.1264,-0.12713,-0.11847,-0.044769,0.0050349,-0.026551,-0.10249,-0.14892,-0.15654,-0.0071587,1.0149,-0.4012,-0.18875,-0.11337,-0.090611,-0.07819,-0.062101,-0.037578,-0.012974,0.040465,0.10449,0.19053,0.22034,0.10667,-0.017375,-0.076861,-0.083244,-0.08454,-0.080937,-0.082113,-0.081301,-0.084431,-0.099347,-0.095314,-0.098093,-0.098697,-0.10073,-0.1004,-0.095107,-0.097953,-0.097415,-0.09758,-0.095361,-0.094946,-0.098319,-0.093094,-0.091746,-0.042222,0.01351,0.033223,-0.037976,-0.10672,-0.12602,-0.098161,0.82517,0.082098,-0.28682,-0.10839,-0.0827,-0.070764,-0.056109,-0.037177,-0.0077105,0.025471,0.087769,0.17252,0.23266,0.17867,0.041803,-0.047783,-0.071631,-0.075,-0.080136,-0.080241,-0.078184,-0.082111,-0.088396,-0.093223,-0.099053,-0.10211,-0.10666,-0.11007,-0.10826,-0.11203,-0.11397,-0.11869,-0.1177,-0.11795,-0.11882,-0.11726,-0.11616,-0.11286,-0.11518,-0.093285,-0.042582,-0.037638,-0.081981,-0.12814,-0.13946,-0.098385,0.87741,-0.077992,-0.27967,-0.13106,-0.10636,-0.097956,-0.083605,-0.065124,-0.045477,-0.0065396,0.051412,0.13526,0.18987,0.12088,-0.0050986,-0.092477,-0.12171,-0.12228,-0.12534,-0.12262,-0.12153,-0.13027,-0.13318,-0.13934,-0.14418,-0.15396,-0.15291,-0.15318,-0.1551,-0.15751,-0.15694,-0.15666,-0.16133,-0.1588,-0.16218,-0.15809,-0.16274,-0.16038,-0.13741,-0.08917,-0.059657,-0.09617,-0.16178,-0.18618,-0.1989,0.21921,0.64037,-0.49563,-0.19934,-0.15634,-0.142,-0.13618,-0.11532,-0.091379,-0.064523,-0.012943,0.051184,0.12288,0.12712,0.014623,-0.091104,-0.13024,-0.13351,-0.13718,-0.13126,-0.12581,-0.12863,-0.13639,-0.13472,-0.14096,-0.1446,-0.14409,-0.14124,-0.14427,-0.14291,-0.14068,-0.13939,-0.12997,-0.13378,-0.12868,-0.058148,-0.0056784,-0.022064,-0.098889,-0.15122,-0.15775,-0.043212,1.0251,-0.35395,-0.20445,-0.11349,-0.089555,-0.078133,-0.061137,-0.031149,0.0012011,0.043218,0.11596,0.19587,0.23231,0.13234,0.0087896,-0.056445,-0.067604,-0.071428,-0.065573,-0.05932,-0.062213,-0.067441,-0.075581,-0.076184,-0.077714,-0.081204,-0.091728,-0.088428,-0.090206,-0.088054,-0.095398,-0.093504,-0.091969,-0.095751,-0.093581,-0.09385,-0.096954,-0.078984,-0.0074201,0.038189,-0.010288,-0.089896,-0.12267,-0.13504,0.25422,0.79063,-0.43914,-0.13885,-0.10663,-0.091585,-0.075855,-0.061699,-0.038685,-0.0090668,0.038031,0.11797,0.1926,0.18953,0.074326,-0.041595,-0.083971,-0.093954,-0.094023,-0.094152,-0.091068,-0.09836,-0.10213,-0.10569,-0.11322,-0.12,-0.11632,-0.11643,-0.11704,-0.1222,-0.12116,-0.11388,-0.11392,-0.12129,-0.12128,-0.1149,-0.11276,-0.11901,-0.10475,-0.027679,0.020874,-0.022326,-0.10018,-0.13108,-0.13986,0.12169,0.91467,-0.44338,-0.14498,-0.10713,-0.082936,-0.066919,-0.051693,-0.031003,-8.5005e-05,0.052329,0.12704,0.20015,0.21492,0.10752,-0.0033194,-0.058179,-0.067896,-0.070164,-0.066002,-0.066283,-0.067807,-0.070071,-0.075487,-0.084394,-0.085397,-0.084559,-0.088863,-0.091276,-0.090276,-0.0902,-0.086296,-0.091608,-0.092562,-0.085994,-0.084406,-0.084323,-0.047522,0.017005,0.043248,-0.033701,-0.10631,-0.12412,-0.10829,0.75236,0.14845,-0.31112,-0.11241,-0.085687,-0.072476,-0.056662,-0.040346,-0.0144,0.014011,0.076141,0.15817,0.22456,0.17061,0.045874,-0.043567,-0.074026,-0.08217,-0.084069,-0.079055,-0.085994,-0.090884,-0.092507,-0.10232,-0.10311,-0.11422,-0.11435,-0.11033,-0.11656,-0.12359,-0.11407,-0.1149,-0.11283,-0.12155,-0.11053,-0.062843,-0.0080248,0.018615,-0.066895,-0.12367,-0.14396,-0.11836,0.82875,-0.036559,-0.30217,-0.11861,-0.085235,-0.07362,-0.056407,-0.040202,-0.0033527,0.02777,0.087845,0.16887,0.22818,0.17184,0.044063,-0.037317,-0.052762,-0.056742,-0.058371,-0.051922,-0.052456,-0.050523,-0.05443,-0.058933,-0.058583,-0.052425,-0.051904,-0.054914,-0.047639,-0.045349,-0.052478,-0.04582,-0.031348,0.0013566,0.060739,0.089384,0.021054,-0.041932,-0.066133,-0.050178,0.84221,0.20166,-0.25928,-0.035549,-0.01231,0.0078623,0.022218,0.043934,0.071249,0.10328,0.16302,0.23545,0.2944,0.24419,0.11612,0.027371,0.01053,0.003927,0.0061608,0.0048071,0.005069,0.0069463,-0.0034356,-0.0089916,-0.0091167,-0.014101,-0.011998,-0.017497,-0.016799,-0.01387,-0.012074,-0.013372,-0.00066326,0.067277,0.11031,0.091105,0.0097278,-0.040848,-0.046382,0.12664,1.11,-0.31522,-0.07429,-0.0053942,0.019036,0.029379,0.042188,0.067922,0.098302,0.14039,0.21666,0.2989,0.32248,0.20445,0.077244,0.020474,0.013647,0.0079129,0.0046618,0.0066095,0.0034773,0.0010736,-0.00041963,-0.0060811,-0.0025059,-0.010654,-0.011824,-0.019143,-0.01826,-0.018828,-0.022674,-0.029148,-0.027609,-0.026113,-0.025934,0.011587,0.075375,0.097835,0.024696,-0.047763,-0.061779,-0.045847,0.79447,0.25942,-0.26598,-0.053166,-0.022707,-0.010785,0.0059325,0.022552,0.049388,0.080406,0.14387,0.22532,0.28956,0.23484,0.10522,0.014952,-0.014294,-0.019822,-0.021265,-0.019471,-0.026677,-0.031688,-0.031733,-0.033109,-0.040263,-0.039177,-0.041589,-0.044315,-0.051184,-0.048699,-0.046673,-0.046471,-0.05028,-0.05414,-0.046493,-0.041237,0.032808,0.078939,0.049052,-0.034953,-0.084751,-0.092618,0.095346,1.0228,-0.3787,-0.12457,-0.063123,-0.046218,-0.035999,-0.017632,-0.0027349,0.021028,0.068573,0.14479,0.2231,0.24222,0.13686,0.0087434,-0.047852,-0.058043,-0.068583,-0.070104,-0.07158,-0.075966,-0.077988,-0.085837,-0.09024,-0.095142,-0.098984,-0.10374,-0.10071,-0.10543,-0.10191,-0.11294,-0.10665,-0.098487,-0.072505,-0.0073357,0.025223,-0.044449,-0.1254,-0.14489,-0.13898,0.65166,0.21092,-0.36261,-0.11909,-0.094657,-0.078372,-0.068832,-0.045201,-0.024033,0.0044979,0.068054,0.13519,0.19361,0.15579,0.032532,-0.054165,-0.081783,-0.08158,-0.088949,-0.081208,-0.079175,-0.092148,-0.093553,-0.089612,-0.097755,-0.10001,-0.10318,-0.10035,-0.10416,-0.10832,-0.10133,-0.048305,0.0090899,0.024935,-0.052864,-0.12033,-0.1343,-0.10986,0.87794,-0.022613,-0.295,-0.10595,-0.075621,-0.065189,-0.045596,-0.023648,0.0033397,0.039701,0.1028,0.183,0.23856,0.16114,0.027009,-0.04529,-0.060934,-0.064566,-0.066638,-0.070123,-0.067303,-0.073408,-0.072813,-0.082147,-0.080861,-0.081801,-0.082672,-0.086356,-0.085223,-0.087895,-0.089267,-0.095171,-0.09016,-0.083171,-0.015291,0.028988,0.0079753,-0.066987,-0.11187,-0.11901,0.039186,1.0354,-0.38585,-0.15295,-0.090781,-0.070176,-0.052547,-0.033187,-0.016752,0.016412,0.059407,0.13636,0.2116,0.23996,0.13493,0.0085603,-0.045939,-0.05555,-0.054215,-0.054631,-0.051719,-0.054691,-0.05917,-0.062063,-0.069269,-0.068349,-0.067462,-0.066129,-0.067028,-0.065959,-0.065206,-0.066136,-0.06665,-0.061756,-0.058558,-0.058021,-0.0081059,0.056239,0.06584,-0.0058228,-0.074583,-0.085539,-0.040966,0.94792,-0.037541,-0.20569,-0.062626,-0.033397,-0.018016,-0.0056786,0.015082,0.035117,0.077821,0.14405,0.22424,0.2752,0.19949,0.067034,-0.0084686,-0.031412,-0.037522,-0.032406,-0.029379,-0.035723,-0.046781,-0.047356,-0.051682,-0.05709,-0.062258,-0.055569,-0.058824,-0.062323,-0.061755,-0.062516,-0.068593,-0.071569,-0.068683,-0.059012,-0.021183,0.044422,0.048768,-0.037297,-0.093748,-0.10035,-0.031815,0.98279,-0.20888,-0.19736,-0.074568,-0.056759,-0.032136,-0.023884,-0.0066736,0.022152,0.066652,0.12715,0.20172,0.24664,0.16849,0.040869,-0.036719,-0.051711,-0.052802,-0.051653,-0.050557,-0.052809,-0.056393,-0.070166,-0.065302,-0.070827,-0.073695,-0.074708,-0.077386,-0.073695,-0.073343,-0.071446,-0.047698,0.022462,0.055679,-0.0049609,-0.086066,-0.10625,-0.10991,0.47443,0.51669,-0.37766,-0.096952,-0.070786,-0.056013,-0.03967,-0.018052,0.0075906,0.033747,0.08935,0.16232,0.22587,0.19732,0.066044,-0.01899,-0.052166,-0.058264,-0.053807,-0.051715,-0.056235,-0.063159,-0.061423,-0.066715,-0.064972,-0.072342,-0.078256,-0.069786,-0.075648,-0.079526,-0.057445,0.014395,0.055832,0.016056,-0.071777,-0.11239,-0.11814,0.24397,0.87893,-0.42215,-0.11118,-0.068738,-0.054145,-0.035049,-0.018921,0.0057636,0.036624,0.094103,0.16788,0.2463,0.2337,0.10132,-0.012851,-0.051041,-0.053366,-0.052086,-0.052922,-0.054573,-0.056105,-0.062633,-0.062489,-0.067554,-0.065108,-0.066962,-0.0714,-0.073279,-0.069655,-0.067947,-0.06623,-0.036948,0.033776,0.072821,0.0054559,-0.076282,-0.10092,-0.091374,0.51932,0.532,-0.36097,-0.093755,-0.063454,-0.047273,-0.027854,-0.0079802,0.011296,0.045283,0.10372,0.18664,0.25187,0.21321,0.086086,-0.0045369,-0.033091,-0.039173,-0.038248,-0.028734,-0.033141,-0.042567,-0.043535,-0.03856,-0.044692,-0.04985,-0.044204,-0.043201,-0.047097,-0.050208,-0.045878,-0.043396,-0.049695,-0.04583,0.024329,0.078411,0.052024,-0.037236,-0.084417,-0.091977,0.040481,0.99109,-0.33751,-0.14338,-0.069909,-0.043561,-0.040567,-0.019114,-0.0040927,0.020992,0.059724,0.12547,0.19229,0.22127,0.12023,-0.0018036,-0.055958,-0.071732,-0.075171,-0.073016,-0.07594,-0.079589,-0.087184,-0.092258,-0.10146,-0.1013,-0.10137,-0.1044,-0.11191,-0.11045,-0.10086,-0.032642,0.016236,-0.015579,-0.10526,-0.1488,-0.15649,0.039556,0.93324,-0.42364,-0.16779,-0.10626,-0.090283,-0.07246,-0.056095,-0.034415,-0.0037054,0.047883,0.10695,0.1791,0.1871,0.081663,-0.031378,-0.07422,-0.083744,-0.079221,-0.077748,-0.079961,-0.084965,-0.083688,-0.08994,-0.090689,-0.08609,-0.083312,-0.082486,-0.086804,-0.080648,-0.077731,-0.076985,-0.016119,0.040697,0.047309,-0.028553,-0.094675,-0.10573,-0.055433,0.95563,-0.055495,-0.21565,-0.060427,-0.038666,-0.023625,-0.0013143,0.020123,0.049314,0.085386,0.15503,0.24191,0.29228,0.20892,0.087857,0.026396,0.0070366,0.0090241,0.014274,0.015222,0.013614,0.01175,0.010516,0.0086964,0.0057517,0.0086646,0.0091492,0.013861,0.015156,0.018002,0.024692,0.027925,0.023413,0.028328,0.035275,0.095496,0.1435,0.14737,0.069082,0.020691,0.011838,0.11165,1.1347,-0.13283,-0.04735,0.044033,0.066927,0.085181,0.099985,0.11381,0.13752,0.18176,0.24497,0.32467,0.353,0.26608,0.14169,0.071636,0.042636,0.043921,0.039068,0.03794,0.033744,0.023629,0.015693,0.012619,-0.0036855,-0.0035021,-0.0082829,-0.015345,-0.020526,-0.019484,-0.022557,-0.035959,-0.037262,-0.027578,0.049513,0.090741,0.052187,-0.038506,-0.08008,-0.090767,0.23024,0.82958,-0.39799,-0.1068,-0.063038,-0.049461,-0.043018,-0.021245,-0.0058148,0.021656,0.068386,0.12378,0.18692,0.18142,0.073174,-0.02697,-0.068537,-0.083709,-0.08303,-0.087073,-0.07929,-0.093917,-0.098664,-0.10421,-0.11023,-0.10837,-0.11018,-0.11451,-0.11506,-0.11048,-0.11126,-0.10435,-0.031278,0.017239,-0.022696,-0.11225,-0.15042,-0.15479,0.14424,0.88008,-0.46648,-0.1562,-0.11543,-0.093845,-0.075994,-0.059182,-0.030831,-0.0065293,0.042745,0.11877,0.18817,0.17802,0.059844,-0.044051,-0.084244,-0.085164,-0.085692,-0.080964,-0.081052,-0.087454,-0.094779,-0.096326,-0.10043,-0.10561,-0.10173,-0.10295,-0.10039,-0.1055,-0.10148,-0.10218,-0.099007,-0.077156,-0.0068485,0.035576,-0.014433,-0.097291,-0.12506,-0.1233,0.39211,0.62147,-0.4094,-0.11667,-0.081507,-0.07066,-0.054955,-0.030527,-0.0099637,0.023963,0.080387,0.1573,0.22435,0.19796,0.071861,-0.02582,-0.05936,-0.06566,-0.065426,-0.057653,-0.064758,-0.06753,-0.070096,-0.072345,-0.075093,-0.076689,-0.078083,-0.083299,-0.078027,-0.082447,-0.083218,-0.086758,-0.08231,-0.085959,-0.08391,-0.035412,0.023308,0.043847,-0.028241,-0.0934,-0.11489,-0.10041,0.78128,0.10421,-0.29802,-0.10941,-0.074257,-0.066086,-0.042028,-0.032741,-0.0067971,0.034667,0.094826,0.16011,0.21991,0.16837,0.038772,-0.055212,-0.078569,-0.080389,-0.082857,-0.085131,-0.078202,-0.092616,-0.095345,-0.1023,-0.11137,-0.11141,-0.11386,-0.11796,-0.12207,-0.1129,-0.11399,-0.11896,-0.11619,-0.11575,-0.1208,-0.063176,-0.0055118,-0.0041301,-0.0767,-0.13343,-0.14984,-0.093074,0.90205,-0.22408,-0.25247,-0.12163,-0.094878,-0.081969,-0.063683,-0.037969,-0.017349,0.016245,0.075156,0.13778,0.18709,0.11372,-0.0098852,-0.070885,-0.081693,-0.093775,-0.088144,-0.084867,-0.094156,-0.095939,-0.098718,-0.10115,-0.10492,-0.11368,-0.11279,-0.10892,-0.10862,-0.11427,-0.1068,-0.089693,-0.01772,0.014798,-0.025481,-0.098062,-0.13905,-0.13903,0.23884,0.79711,-0.44867,-0.12787,-0.083018,-0.07178,-0.054431,-0.036526,-0.0111,0.018508,0.071679,0.13922,0.21364,0.19586,0.070771,-0.031701,-0.060369,-0.071293,-0.071843,-0.069461,-0.069363,-0.069486,-0.07686,-0.081329,-0.090057,-0.085916,-0.084922,-0.089329,-0.089977,-0.086645,-0.09071,-0.091601,-0.089925,-0.083214,-0.080027,-0.002048,0.04492,0.012234,-0.062483,-0.10919,-0.11897,0.061365,1.0126,-0.38563,-0.13948,-0.08061,-0.059466,-0.045187,-0.029972,-0.00064487,0.026491,0.067899,0.13929,0.21587,0.231,0.12213,0.0041461,-0.038145,-0.05122,-0.05734,-0.053994,-0.051767,-0.05982,-0.064468,-0.065857,-0.071622,-0.070447,-0.077223,-0.074758,-0.075849,-0.077856,-0.080238,-0.081502,-0.076603,-0.078562,-0.082017,-0.076966,-0.033832,0.030617,0.056456,-0.011066,-0.082979,-0.10843,-0.10134,0.71589,0.22944,-0.30927,-0.093347,-0.062768,-0.047323,-0.035707,-0.019061,0.0084815,0.047319,0.099507,0.17486,0.23351,0.18546,0.058621,-0.023066,-0.044956,-0.045959,-0.047549,-0.043548,-0.048686,-0.05055,-0.054873,-0.058735,-0.059748,-0.055978,-0.058834,-0.056561,-0.060207,-0.062564,-0.062955,-0.063504,-0.060531,-0.060519,-0.055449,0.0088149,0.059811,0.050019,-0.033451,-0.088036,-0.092453,0.015876,1.0085,-0.3018,-0.15319,-0.063731,-0.04253,-0.033435,-0.014235,0.0060328,0.036313,0.066116,0.13364,0.21038,0.23698,0.13998,0.027602,-0.029942,-0.041707,-0.051207,-0.047963,-0.047582,-0.051015,-0.056883,-0.056059,-0.057844,-0.06892,-0.060205,-0.064342,-0.071561,-0.069047,-0.068257,-0.072149,-0.066627,-0.063414,-0.0065648,0.049447,0.046027,-0.03455,-0.089293,-0.10124,-0.039115,0.97062,-0.20577,-0.19487,-0.069581,-0.04485,-0.032886,-0.012207,0.0092445,0.034423,0.076395,0.12732,0.19378,0.23587,0.15232,0.0281,-0.026029,-0.046202,-0.047047,-0.053393,-0.045952,-0.050188,-0.054898,-0.060377,-0.06353,-0.066374,-0.067072,-0.069359,-0.068505,-0.069904,-0.07867,-0.045753,0.021896,0.056791,0.0025573,-0.071079,-0.097393,-0.10645,0.34699,0.71744,-0.39162,-0.083074,-0.048139,-0.035657,-0.017772,0.0005713,0.025157,0.049683,0.10466,0.17719,0.24052,0.21463,0.091153,-0.0071716,-0.039404,-0.04479,-0.038224,-0.04283,-0.044222,-0.049385,-0.049653,-0.055392,-0.064748,-0.065444,-0.064216,-0.066365,-0.074247,-0.06922,-0.069915,-0.075692,-0.061277,0.014287,0.061395,0.024378,-0.062158,-0.098719,-0.10248,0.11016,1.0239,-0.40152,-0.11717,-0.062173,-0.046081,-0.030237,-0.0088023,0.011252,0.046181,0.093264,0.17222,0.24017,0.24683,0.13644,0.016855,-0.028808,-0.03785,-0.030048,-0.030196,-0.031045,-0.033378,-0.035009,-0.034005,-0.040765,-0.040551,-0.035554,-0.038146,-0.035944,-0.034515,-0.033606,-0.03665,-0.035686,-0.03791,-0.030727,-0.022722,-0.021363,0.021351,0.092277,0.10127,0.03124,-0.037513,-0.048131,-0.019538,0.92892,0.09559,-0.19625,-0.02321,0.0032252,0.019832,0.041614,0.065109,0.088411,0.12429,0.18511,0.2632,0.31138,0.25174,0.12913,0.048738,0.031947,0.031366,0.031955,0.032129,0.03049,0.026552,0.027143,0.025165,0.022906,0.020697,0.026751,0.024856,0.024047,0.025413,0.026709,0.029855,0.029708,0.029295,0.036044,0.040604,0.048731,0.12067,0.17078,0.14184,0.064003,0.020754,0.018314,0.18955,1.1358,-0.2499,-0.0010513,0.058961,0.072096,0.084943,0.10151,0.12684,0.15098,0.19888,0.26324,0.3376,0.35789,0.25431,0.13897,0.083503,0.065648,0.063016,0.07288,0.074668,0.064368,0.061433,0.064979,0.062167,0.055538,0.048264,0.055645,0.052986,0.042644,0.0456,0.049116,0.050671,0.048829,0.048321,0.049342,0.095606,0.15443,0.17797,0.11034,0.040243,0.022409,0.027453,0.8529,0.29781,-0.18537,0.032788,0.06435,0.082396,0.091561,0.11087,0.13496,0.16975,0.2125,0.28281,0.3404,0.29186,0.16958,0.085294,0.068634,0.067947,0.066321,0.065938,0.063958,0.065888,0.058793,0.052824,0.052355,0.048572,0.041348,0.041091,0.036498,0.040257,0.035285,0.032104,0.033806,0.048679,0.1181,0.16041,0.11404,0.024588,-0.0020152,-0.0077379,0.37313,0.85502,-0.31025,-0.0073876,0.032916,0.049115,0.058464,0.079868,0.097685,0.13055,0.16593,0.23346,0.29026,0.28497,0.16284,0.055309,0.022843,0.011289,0.015633,0.010299,0.0077827,0.0071122,0.00013877,-0.0029143,-0.010507,-0.0081119,-0.017637,-0.021696,-0.019893,-0.022606,-0.022845,-0.026119,-0.0023396,0.065572,0.099568,0.040191,-0.029506,-0.063582,-0.062749,0.44095,0.71332,-0.35004,-0.055619,-0.01818,0.0014277,0.011453,0.031297,0.050922,0.084623,0.12986,0.19615,0.2617,0.23374,0.10869,0.013368,-0.027194,-0.027325,-0.024151,-0.025181,-0.02983,-0.032441,-0.039385,-0.046658,-0.048316,-0.054483,-0.057077,-0.060772,-0.062352,-0.067057,-0.066195,-0.071873,-0.066512,-0.075621,-0.072622,-0.070226,-0.069778,-0.029673,0.026649,0.048067,-0.014748,-0.090157,-0.10623,-0.093907,0.79205,0.15361,-0.30472,-0.099966,-0.069839,-0.047882,-0.029627,-0.017746,0.0084359,0.043692,0.093895,0.17199,0.23214,0.17612,0.050685,-0.03555,-0.062553,-0.063038,-0.058064,-0.053639,-0.056666,-0.061423,-0.065227,-0.065873,-0.070148,-0.068057,-0.07196,-0.073397,-0.074917,-0.076086,-0.067112,-0.071482,-0.069462,-0.068588,-0.063084,-0.056809,-0.05412,-0.0019585,0.05748,0.063252,-0.018893,-0.078243,-0.091104,-0.047355,0.95437,-0.065623,-0.2094,-0.069748,-0.044022,-0.02778,-0.0070154,0.0074175,0.034388,0.072286,0.12999,0.20324,0.24922,0.18031,0.053713,-0.019828,-0.039851,-0.037878,-0.039172,-0.039798,-0.039004,-0.043771,-0.045014,-0.052088,-0.051251,-0.05209,-0.049875,-0.054762,-0.060461,-0.061309,-0.057135,-0.064522,-0.063317,-0.063537,-0.06339,-0.057433,0.014768,0.061266,0.020201,-0.059644,-0.096186,-0.10652,0.20782,0.85872,-0.42798,-0.11567,-0.088228,-0.06945,-0.049423,-0.029268,-0.015052,0.015033,0.063384,0.13095,0.20021,0.18948,0.080172,-0.032261,-0.074917,-0.087655,-0.087665,-0.086554,-0.084809,-0.08984,-0.09579,-0.096365,-0.1077,-0.10219,-0.10367,-0.10784,-0.10722,-0.11302,-0.11858,-0.12041,-0.10769,-0.047721,0.0023985,-0.0043586,-0.093783,-0.14193,-0.15173,-0.027923,0.9414,-0.37223,-0.20487,-0.11847,-0.096324,-0.080437,-0.061908,-0.03674,-0.013359,0.025947,0.088258,0.15877,0.18113,0.081865,-0.027312,-0.081918,-0.084955,-0.084724,-0.091083,-0.083629,-0.081644,-0.092798,-0.096048,-0.094108,-0.10176,-0.1019,-0.097954,-0.10282,-0.097826,-0.018687,0.028316,0.0014575,-0.094931,-0.13565,-0.14333,0.017021,0.9776,-0.40752,-0.18056,-0.1058,-0.087116,-0.072716,-0.050995,-0.02702,0.0022253,0.046228,0.11658,0.19638,0.19294,0.077227,-0.042291,-0.076912,-0.09019,-0.089869,-0.087564,-0.08186,-0.082398,-0.09013,-0.09238,-0.096903,-0.099157,-0.097101,-0.095879,-0.091304,-0.093204,-0.092426,-0.018859,0.02753,0.019055,-0.072904,-0.12282,-0.13816,-0.062318,0.986,-0.21296,-0.23333,-0.10416,-0.076431,-0.062641,-0.04137,-0.025531,0.00673,0.046147,0.12092,0.1966,0.23032,0.12058,-0.0022646,-0.061615,-0.073696,-0.072868,-0.065731,-0.063337,-0.063886,-0.066911,-0.068475,-0.068863,-0.078754,-0.075198,-0.07469,-0.080825,-0.085552,-0.090648,-0.087745,-0.084912,-0.084874,-0.080092,-0.081611,-0.076335,-0.075567,-0.040547,0.027639,0.060841,-0.0056883,-0.079834,-0.099444,-0.095064,0.59273,0.43109,-0.33115,-0.08414,-0.052638,-0.035816,-0.019009,0.0060645,0.02987,0.064112,0.12738,0.20975,0.27117,0.23484,0.11325,0.023075,-0.0051931,-0.015035,-0.01087,-0.0043695,-0.011623,-0.013206,-0.014635,-0.012962,-0.0212,-0.025889,-0.0225,-0.021794,-0.027252,-0.027812,-0.025595,-0.026623,-0.026017,-0.020775,-0.017781,-0.015108,-0.017863,-0.011774,0.014233,0.08302,0.12017,0.06429,-0.012673,-0.048774,-0.047993,0.46278,0.66149,-0.33124,-0.044848,-0.00048788,0.013025,0.034466,0.054554,0.076807,0.12049,0.1766,0.24881,0.31539,0.30546,0.17394,0.069974,0.045789,0.030894,0.03434,0.040551,0.038327,0.031335,0.027021,0.02336,0.020779,0.020071,0.01899,0.0144,0.0067707,0.013537,0.0083506,-0.0024438,0.0017264,0.0026661,-0.00070788,0.0051989,0.048202,0.10538,0.11824,0.033613,-0.030498,-0.043685,-0.012187,0.94968,0.02719,-0.2018,-0.023138,0.0020492,0.011081,0.033749,0.05407,0.075012,0.10997,0.16925,0.23206,0.28349,0.21709,0.10538,0.018634,0.0039468,-0.0002514,-0.0017008,0.0036352,-0.0026356,-0.0050853,-0.013537,-0.014065,-0.021598,-0.024476,-0.023586,-0.028593,-0.031829,-0.035078,-0.03185,-0.032643,-0.034919,-0.030522,0.0083758,0.070182,0.084309,0.0096667,-0.047996,-0.071678,-0.044753,0.9222,0.081771,-0.23723,-0.051856,-0.020791,-0.0083573,0.005311,0.020043,0.055794,0.0883,0.16084,0.23327,0.28516,0.2048,0.065923,-0.012819,-0.031982,-0.029118,-0.030525,-0.02894,-0.032751,-0.033385,-0.035546,-0.043452,-0.046836,-0.050818,-0.050432,-0.053846,-0.053001,-0.053567,-0.051212,-0.055106,-0.055912,-0.059519,-0.05732,-0.056954,-0.055878,-0.035633,0.027869,0.065047,-0.00025388,-0.073341,-0.10052,-0.096554,0.55263,0.48823,-0.35013,-0.09089,-0.054154,-0.04475,-0.029174,-0.013035,0.014579,0.048287,0.10319,0.18365,0.24981,0.21476,0.082193,-0.017017,-0.049707,-0.052425,-0.053146,-0.047057,-0.047205,-0.052078,-0.05228,-0.05904,-0.064161,-0.07134,-0.072349,-0.071479,-0.07729,-0.076064,-0.074201,-0.074328,-0.072934,-0.078966,-0.075962,-0.08346,-0.079256,-0.080966,-0.033696,0.024882,0.043563,-0.028533,-0.092159,-0.1146,-0.090676,0.8364,0.042603,-0.2803,-0.10455,-0.080629,-0.069593,-0.055691,-0.029146,-0.0039614,0.035665,0.093348,0.17738,0.23204,0.16516,0.028113,-0.054284,-0.082148,-0.085122,-0.087469,-0.084592,-0.086041,-0.094664,-0.094853,-0.1021,-0.1082,-0.11134,-0.11498,-0.12179,-0.12373,-0.12185,-0.12591,-0.12391,-0.12474,-0.12693,-0.12486,-0.124,-0.073326,-0.015245,0.0018367,-0.077659,-0.13987,-0.15252,-0.11595,0.85287,-0.14148,-0.28793,-0.12635,-0.10395,-0.093239,-0.074257,-0.049488,-0.031652,0.011874,0.072477,0.14026,0.1905,0.11856,-0.0056519,-0.079625,-0.097687,-0.098084,-0.098371,-0.095773,-0.10112,-0.1033,-0.099254,-0.1067,-0.11477,-0.11046,-0.11434,-0.10633,-0.11299,-0.11146,-0.11113,-0.10502,-0.072846,-0.0066354,0.021348,-0.045638,-0.1131,-0.1333,-0.12824,0.66527,0.26441,-0.3457,-0.10435,-0.068093,-0.057261,-0.0367,-0.01978,0.0075838,0.04314,0.1073,0.18804,0.2415,0.1878,0.054873,-0.029316,-0.047688,-0.05383,-0.052552,-0.042965,-0.042524,-0.047444,-0.04729,-0.047667,-0.053108,-0.055815,-0.058048,-0.057732,-0.055821,-0.058028,-0.060941,-0.062376,-0.056151,0.0069962,0.054343,0.057566,-0.014959,-0.07547,-0.088589,-0.05426,0.94359,-0.014319,-0.23819,-0.070553,-0.042373,-0.025507,-0.017465,0.0059056,0.033371,0.071084,0.13299,0.21539,0.26269,0.16878,0.03242,-0.039294,-0.06141,-0.071057,-0.068963,-0.06608,-0.066535,-0.076967,-0.083373,-0.084695,-0.08661,-0.08852,-0.090332,-0.093977,-0.099209,-0.10382,-0.10334,-0.10008,-0.10534,-0.10705,-0.11021,-0.097238,-0.025753,0.019343,-0.012452,-0.08977,-0.13256,-0.14335,0.042296,0.99298,-0.42382,-0.17354,-0.12192,-0.10198,-0.087276,-0.073675,-0.052421,-0.018166,0.022592,0.097615,0.17287,0.19383,0.078231,-0.043511,-0.09393,-0.10373,-0.105,-0.10417,-0.098033,-0.09353,-0.093657,-0.10001,-0.10262,-0.10489,-0.10832,-0.10756,-0.10486,-0.10808,-0.11043,-0.1121,-0.10953,-0.10497,-0.10076,-0.10523,-0.09887,-0.072332,0.00096268,0.036785,-0.014999,-0.091483,-0.1211,-0.11247,0.42462,0.57281,-0.39098,-0.10552,-0.072034,-0.052154,-0.038903,-0.014637,0.00622,0.041185,0.094171,0.17059,0.23814,0.2136,0.084776,-0.010603,-0.047919,-0.053507,-0.055432,-0.056514,-0.054391,-0.058709,-0.058656,-0.071824,-0.066078,-0.072758,-0.076172,-0.077019,-0.080277,-0.071743,-0.071705,-0.084938,-0.083522,-0.076873,-0.060449,0.0058068,0.049782,0.012179,-0.067698,-0.10839,-0.11048,0.22403,0.80525,-0.41398,-0.11309,-0.068957,-0.049713,-0.040893,-0.021567,0.0085078,0.033536,0.078344,0.14311,0.21785,0.20709,0.090227,-0.019182,-0.053234,-0.056291,-0.066199,-0.059835,-0.057769,-0.063981,-0.061702,-0.074304,-0.071803,-0.07484,-0.078886,-0.078289,-0.083262,-0.077318,-0.08298,-0.081572,-0.075368,-0.069509,0.0020186,0.048814,0.022966,-0.057409,-0.096344,-0.10344,0.078002,1.0424,-0.37865,-0.11956,-0.056761,-0.03865,-0.020144,-0.0052033,0.022116,0.053386,0.10186,0.18062,0.2507,0.26585,0.14626,0.032718,-0.017141,-0.025922,-0.022752,-0.016831,-0.014893,-0.023209,-0.023034,-0.027465,-0.027178,-0.03229,-0.033055,-0.030793,-0.027343,-0.029307,-0.034521,-0.028183,-0.027604,-0.024203,-0.028995,-0.028794,-0.02886,-0.029038,-0.026124,0.011184,0.077874,0.10458,0.038251,-0.030749,-0.053295,-0.045853,0.75719,0.33165,-0.2596,-0.045713,-0.018139,0.0034005,0.017825,0.036313,0.058117,0.096137,0.1613,0.23683,0.30083,0.25322,0.12223,0.028743,0.0024526,0.00073078,0.0030166,0.0041353,0.0065905,0.0040119,0.0012873,-0.0063809,-0.0082235,-0.015577,-0.016818,-0.011395,-0.018027,-0.017987,-0.020089,-0.01752,-0.01964,-0.018613,-0.019217,-0.01501,-0.01894,-0.018072,-0.019717,0.049625,0.099623,0.091309,0.0092041,-0.044866,-0.049838,0.045669,1.0649,-0.27113,-0.14929,-0.055399,-0.034043,-0.017555,-0.010202,0.014408,0.032594,0.074386,0.13781,0.22158,0.2547,0.1567,0.028611,-0.035175,-0.052955,-0.058878,-0.058348,-0.056641,-0.062306,-0.067826,-0.078529,-0.083043,-0.080796,-0.091093,-0.091002,-0.09349,-0.092549,-0.10023,-0.10028,-0.098795,-0.10525,-0.10794,-0.10148,-0.07106,-0.009627,0.016955,-0.058716,-0.12414,-0.14473,-0.13996,0.66914,0.17436,-0.36426,-0.13635,-0.10925,-0.09553,-0.077161,-0.057028,-0.036654,0.0053486,0.051806,0.12425,0.17267,0.12962,0.0076635,-0.074581,-0.10598,-0.10328,-0.099921,-0.095562,-0.098954,-0.10808,-0.10814,-0.11469,-0.11507,-0.11814,-0.11575,-0.11663,-0.11588,-0.11541,-0.1161,-0.11205,-0.11518,-0.10744,-0.035643,0.012081,-0.0090178,-0.077679,-0.12416,-0.13784,-0.026082,1.0273,-0.31614,-0.19245,-0.11196,-0.082799,-0.073791,-0.056452,-0.033233,-0.0060946,0.042049,0.11082,0.18891,0.21795,0.11207,-0.01654,-0.071212,-0.082397,-0.083352,-0.08439,-0.081099,-0.086354,-0.090587,-0.09916,-0.1055,-0.10438,-0.10966,-0.11062,-0.11276,-0.11329,-0.10876,-0.10854,-0.11209,-0.11388,-0.11132,-0.11326,-0.11909,-0.12018,-0.11434,-0.051949,-0.0051637,-0.0098908,-0.092597,-0.1463,-0.1612,-0.08703,0.94198,-0.27087,-0.24967,-0.14339,-0.11967,-0.10852,-0.094323,-0.071932,-0.046509,-0.0036975,0.059706,0.13975,0.1799,0.093321,-0.03821,-0.10361,-0.11993,-0.12912,-0.12826,-0.11963,-0.12437,-0.12673,-0.13577,-0.13521,-0.13638,-0.14339,-0.14175,-0.14,-0.1477,-0.14791,-0.14232,-0.14317,-0.14509,-0.14807,-0.144,-0.13651,-0.13763,-0.13801,-0.13138,-0.090515,-0.02523,-0.0024286,-0.077823,-0.13531,-0.15298,-0.14157,0.71716,0.09158,-0.34207,-0.13582,-0.10884,-0.087838,-0.074401,-0.049447,-0.023316,0.0044353,0.074164,0.15405,0.20869,0.16917,0.047814,-0.038325,-0.069196,-0.064215,-0.065211,-0.061902,-0.064354,-0.060095,-0.061378,-0.066115,-0.067926,-0.067286,-0.07192,-0.077084,-0.078369,-0.077067,-0.070858,-0.078939,-0.072881,-0.072488,-0.07425,-0.075659,-0.012504,0.041305,0.031089,-0.050118,-0.101,-0.11689,-0.017403,1.0091,-0.30665,-0.1862,-0.08582,-0.060099,-0.052695,-0.03402,-0.018429,0.011038,0.047225,0.12117,0.20225,0.22882,0.12865,0.0015493,-0.056908,-0.067477,-0.072706,-0.077486,-0.069873,-0.068492,-0.083729,-0.084012,-0.091541,-0.086952,-0.093487,-0.096582,-0.095516,-0.10163,-0.10531,-0.10416,-0.096783,-0.10454,-0.10236,-0.037127,0.017356,0.0030041,-0.077879,-0.12754,-0.13718,-0.039536,1.0299,-0.30982,-0.20952,-0.1058,-0.083818,-0.070436,-0.052018,-0.028067,-0.00018577,0.044206,0.1234,0.20231,0.2322,0.12878,0.0022463,-0.065238,-0.080302,-0.080027,-0.072925,-0.074723,-0.077471,-0.080869,-0.085922,-0.084042,-0.095708,-0.094227,-0.093947,-0.099507,-0.099988,-0.098338,-0.097783,-0.10001,-0.098036,-0.099921,-0.09756,-0.097175,-0.10106,-0.098618,-0.089692,-0.020647,0.027901,0.0052213,-0.065033,-0.11118,-0.12423,0.038478,1.0376,-0.3832,-0.1614,-0.10051,-0.075665,-0.059525,-0.044424,-0.019587,0.012473,0.058585,0.1357,0.21908,0.23865,0.13465,0.0095435,-0.047314,-0.063038,-0.063722,-0.059166,-0.053992,-0.05497,-0.063332,-0.061966,-0.069542,-0.072363,-0.075482,-0.078469,-0.078174,-0.078565,-0.079543,-0.08616,-0.082669,-0.08251,-0.084695,-0.085906,-0.086468,-0.082552,-0.079183,-0.07921,-0.038383,0.02031,0.036005,-0.042549,-0.10691,-0.11519,-0.094177,0.86655,-0.03632,-0.27659,-0.10867,-0.079333,-0.068728,-0.049199,-0.037242,-0.0086923,0.031846,0.089121,0.17155,0.21632,0.16027,0.034341,-0.052404,-0.074825,-0.070024,-0.07125,-0.071892,-0.073323,-0.076406,-0.080249,-0.079205,-0.084098,-0.088013,-0.08312,-0.09046,-0.0902,-0.092442,-0.090231,-0.091733,-0.092269,-0.088793,-0.09456,-0.09556,-0.070811,-0.009908,0.038904,-0.024795,-0.10484,-0.13303,-0.12776,0.48603,0.45798,-0.39365,-0.12469,-0.086122,-0.080145,-0.064815,-0.048131,-0.026965,0.0055168,0.059382,0.13985,0.19921,0.1704,0.038037,-0.05427,-0.091856,-0.09891,-0.097608,-0.092253,-0.091432,-0.095593,-0.097637,-0.10581,-0.1096,-0.11595,-0.11857,-0.11759,-0.12169,-0.12402,-0.12546,-0.121,-0.12241,-0.12491,-0.12267,-0.12659,-0.11884,-0.054617,-0.0074577,-0.029557,-0.10491,-0.15628,-0.16426,-2.6407e-05,0.99476,-0.43757,-0.19197,-0.13658,-0.11868,-0.10616,-0.082339,-0.060961,-0.025963,0.021257,0.093992,0.17535,0.19751,0.085737,-0.037862,-0.090077,-0.10267,-0.10274,-0.098752,-0.095658,-0.096577,-0.10317,-0.10333,-0.10532,-0.10194,-0.11277,-0.10946,-0.10961,-0.1133,-0.11415,-0.11168,-0.11057,-0.11324,-0.11447,-0.10892,-0.10405,-0.10199,-0.05314,0.0081378,0.021233,-0.049153,-0.11109,-0.12635,-0.09837,0.85096,0.036425,-0.27133,-0.095,-0.068063,-0.056315,-0.036401,-0.011118,0.0079722,0.049406,0.11409,0.19671,0.25614,0.18749,0.05781,-0.034663,-0.053996,-0.061353,-0.06265,-0.05195,-0.055858,-0.061317,-0.060754,-0.063681,-0.072319,-0.078156,-0.078046,-0.077824,-0.08006,-0.087757,-0.086566,-0.082621,-0.09029,-0.091714,-0.090116,-0.092169,-0.092886,-0.035885,0.017539,0.015473,-0.059512,-0.1255,-0.13378,-0.088413,0.92254,-0.18937,-0.25682,-0.12006,-0.096798,-0.086009,-0.066867,-0.047979,-0.026201,0.01613,0.07794,0.14685,0.1939,